{'sampling_frequency': 9760, 'signal_level': 10, 'signal_level_units': 'mVrms', 'signal_frequency': 105, 'signal_frequency_units': 'Hz'}
Time (s),Voltage (mV)
0.0,1282.6797366142273
0.00010245901639344262,1281.3961029052734
0.00020491803278688525,1279.45157289505
0.00030737704918032784,1276.944100856781
0.0004098360655737705,1273.8363146781921
0.0005122950819672131,1270.168340206146
0.0006147540983606557,1265.9248352050781
0.0007172131147540983,1261.1168146133423
0.000819672131147541,1255.7430982589722
0.0009221311475409836,1249.8674154281614
0.0010245901639344263,1243.5047149658203
0.001127049180327869,1236.6652250289915
0.0012295081967213114,1229.3945789337158
0.001331967213114754,1221.8013525009155
0.0014344262295081967,1213.8229966163633
0.0015368852459016393,1205.504751205444
0.001639344262295082,1196.9308018684385
0.0017418032786885246,1188.0523681640625
0.0018442622950819673,1179.010283946991
0.00194672131147541,1169.8261857032774
0.0020491803278688526,1160.4764699935913
0.002151639344262295,1151.0744333267212
0.002254098360655738,1141.6491866111755
0.0023565573770491805,1132.255411148071
0.0024590163934426227,1122.9458212852476
0.0025614754098360654,1113.6637687683103
0.002663934426229508,1104.5382857322693
0.0027663934426229507,1095.6260204315186
0.0028688524590163933,1086.9352340698242
0.002971311475409836,1078.5154938697815
0.0030737704918032786,1070.2940225601196
0.0031762295081967213,1062.4297499656677
0.003278688524590164,1054.9675226211548
0.0033811475409836066,1047.961628437042
0.0034836065573770492,1041.3310289382932
0.003586065573770492,1035.1485013961792
0.0036885245901639345,1029.533243179321
0.003790983606557377,1024.4970560073853
0.00389344262295082,1019.8904514312743
0.003995901639344262,1015.7987952232361
0.004098360655737705,1012.3401045799254
0.004200819672131147,1009.5053315162659
0.00430327868852459,1007.2944760322571
0.004405737704918033,1005.7177662849426
0.004508196721311476,1004.6945571899413
0.004610655737704918,1004.3239831924437
0.004713114754098361,1004.6859025955199
0.004815573770491803,1005.6693792343139
0.0049180327868852455,1007.2590708732605
0.0050204918032786885,1009.4919562339782
0.005122950819672131,1012.3188614845276
0.005225409836065574,1015.7504081726074
0.005327868852459016,1019.7122454643248
0.005430327868852459,1024.2795109748838
0.005532786885245901,1029.385721683502
0.0056352459016393444,1035.031270980835
0.005737704918032787,1041.1677718162534
0.00584016393442623,1047.7495908737183
0.005942622950819672,1054.7720074653625
0.006045081967213115,1062.2358083724973
0.006147540983606557,1070.0662493705747
0.00625,1078.250741958618
0.0063524590163934426,1086.6807103157043
0.006454918032786886,1095.3652024269102
0.006557377049180328,1104.3305754661558
0.00665983606557377,1113.4356021881101
0.006762295081967213,1122.7070331573486
0.006864754098360655,1132.0488810539243
0.0069672131147540985,1141.4402961730957
0.007069672131147541,1150.8726239204404
0.007172131147540984,1160.28174161911
0.007274590163934426,1169.6216225624082
0.007377049180327869,1178.815162181854
0.007479508196721311,1187.8131866455078
0.007581967213114754,1196.6632962226865
0.007684426229508197,1205.2490472793577
0.00778688524590164,1213.529133796692
0.007889344262295083,1221.5208649635315
0.007991803278688524,1229.1514635086057
0.008094262295081967,1236.4036202430723
0.00819672131147541,1243.2254076004028
0.008299180327868852,1249.5707988739014
0.008401639344262295,1255.4370403289795
0.008504098360655738,1260.8021020889282
0.00860655737704918,1265.6262516975403
0.008709016393442622,1269.8831319808958
0.008811475409836065,1273.634898662567
0.008913934426229508,1276.7560601234436
0.009016393442622951,1279.2769074440002
0.009118852459016393,1281.2005877494812
0.009221311475409836,1282.5015306472778
0.009323770491803279,1283.1494450569153
0.009426229508196722,1283.1671476364136
0.009528688524590163,1282.5196266174314
0.009631147540983606,1281.266677379608
0.00973360655737705,1279.3217539787292
0.009836065573770491,1276.854407787323
0.009938524590163934,1273.791468143463
0.010040983606557377,1270.1238870620725
0.01014344262295082,1265.8449769020078
0.010245901639344262,1261.0641002655027
0.010348360655737705,1255.6880235671997
0.010450819672131148,1249.8485326766965
0.01055327868852459,1243.4677362442014
0.010655737704918032,1236.6565704345703
0.010758196721311475,1229.3949723243713
0.010860655737704918,1221.7537522315977
0.010963114754098361,1213.7592673301697
0.011065573770491803,1205.4701328277588
0.011168032786885246,1196.8509435653687
0.011270491803278689,1187.9953265190125
0.011372950819672132,1178.9819598197937
0.011475409836065573,1169.8124170303342
0.011577868852459016,1160.5488538742065
0.01168032786885246,1151.0885953903198
0.0117827868852459,1141.6385650634766
0.011885245901639344,1132.2274804115295
0.011987704918032787,1122.80695438385
0.01209016393442623,1113.5284423828125
0.012192622950819671,1104.4277429580688
0.012295081967213115,1095.5013155937195
0.012397540983606558,1086.7849588394165
0.0125,1078.350269794464
0.012602459016393442,1070.21062374115
0.012704918032786885,1062.4364376068113
0.012807377049180328,1054.9923062324524
0.012909836065573771,1047.901439666748
0.013012295081967213,1041.2610054016113
0.013114754098360656,1035.0517272949219
0.013217213114754099,1029.3530702590942
0.01331967213114754,1024.210274219513
0.013422131147540983,1019.6477293968201
0.013524590163934426,1015.641438961029
0.01362704918032787,1012.172520160675
0.01372950819672131,1009.3259453773497
0.013831967213114754,1007.1032881736754
0.013934426229508197,1005.4604887962341
0.01403688524590164,1004.4294118881226
0.014139344262295081,1004.1453838348389
0.014241803278688524,1004.5297265052795
0.014344262295081968,1005.5320858955383
0.01444672131147541,1007.115876674652
0.014549180327868852,1009.3503355979918
0.014651639344262295,1012.1788144111632
0.014754098360655738,1015.6367182731627
0.01485655737704918,1019.6563839912413
0.014959016393442623,1024.1972923278809
0.015061475409836066,1029.3223857879639
0.015163934426229509,1034.9561333656309
0.01526639344262295,1041.1256790161133
0.015368852459016393,1047.7444767951965
0.015471311475409836,1054.7979712486267
0.01557377049180328,1062.2196793556213
0.01567622950819672,1070.045793056488
0.015778688524590165,1078.1795382499695
0.015881147540983607,1086.6114735603333
0.015983606557377048,1095.3242897987366
0.016086065573770493,1104.28808927536
0.016188524590163934,1113.4143590927124
0.016290983606557376,1122.7365374565125
0.01639344262295082,1132.1110367774963
0.016495901639344262,1141.5118932723997
0.016598360655737703,1150.9375333786008
0.016700819672131148,1160.3769421577451
0.01680327868852459,1169.631850719452
0.016905737704918034,1178.7872314453125
0.017008196721311476,1187.8324627876282
0.017110655737704917,1196.7077493667603
0.01721311475409836,1205.3359866142273
0.017315573770491803,1213.6774420738218
0.017418032786885244,1221.6573715209959
0.01752049180327869,1229.2521715164185
0.01762295081967213,1236.5019679069517
0.017725409836065575,1243.330442905426
0.017827868852459017,1249.6833086013792
0.017930327868852458,1255.58180809021
0.018032786885245903,1260.9393954277036
0.018135245901639344,1265.7749533653257
0.018237704918032786,1270.0656652450562
0.01834016393442623,1273.7836003303526
0.018442622950819672,1276.850080490112
0.018545081967213113,1279.3681740760803
0.018647540983606558,1281.2662839889526
0.01875,1282.5896501541135
0.018852459016393444,1283.2851648330688
0.018954918032786885,1283.3331584930418
0.019057377049180327,1282.6883912086487
0.01915983606557377,1281.43150806427
0.019262295081967213,1279.5813918113708
0.019364754098360654,1277.0589709281921
0.0194672131147541,1273.9637732505798
0.01956967213114754,1270.2367901802063
0.019672131147540982,1265.996432304382
0.019774590163934427,1261.1459255218504
0.019877049180327868,1255.765128135681
0.019979508196721313,1249.9504208564758
0.020081967213114754,1243.7379956245422
0.020184426229508196,1236.941385269165
0.02028688524590164,1229.6616911888123
0.02038934426229508,1222.0751523971558
0.020491803278688523,1214.069652557373
0.020594262295081968,1205.7376384735107
0.02069672131147541,1197.1274971961973
0.020799180327868854,1188.2789611816406
0.020901639344262295,1179.2852640151975
0.021004098360655737,1170.0893640518188
0.02110655737704918,1160.7455492019653
0.021209016393442623,1151.3545274734495
0.021311475409836064,1141.9501304626465
0.02141393442622951,1132.5882196426392
0.02151639344262295,1123.2329964637754
0.021618852459016392,1113.937175273895
0.021721311475409837,1104.8053979873657
0.021823770491803278,1095.8884119987486
0.021926229508196723,1087.188971042633
0.022028688524590164,1078.7188768386839
0.022131147540983605,1070.5119609832764
0.02223360655737705,1062.638247013092
0.02233606557377049,1055.1193714141843
0.022438524590163933,1048.022997379303
0.022540983606557378,1041.3589596748352
0.02264344262295082,1035.1728916168213
0.022745901639344264,1029.5009851455688
0.022848360655737705,1024.378252029419
0.022950819672131147,1019.7712540626525
0.02305327868852459,1015.7118558883667
0.023155737704918033,1012.2685074806212
0.023258196721311474,1009.4372749328613
0.02336065573770492,1007.2177648544312
0.02346311475409836,1005.6331872940063
0.0235655737704918,1004.642629623413
0.023668032786885247,1004.274809360504
0.023770491803278688,1004.5934557914733
0.023872950819672133,1005.5962085723877
0.023975409836065574,1007.1725249290466
0.024077868852459015,1009.3377470970153
0.02418032786885246,1012.0993494987487
0.0242827868852459,1015.5155539512634
0.024385245901639343,1019.5017814636229
0.024487704918032788,1024.0434765815733
0.02459016393442623,1029.146146774292
0.02469262295081967,1034.7739934921265
0.024795081967213115,1040.89515209198
0.024897540983606557,1047.522211074829
0.025,1054.5462012290955
0.025102459016393443,1061.977744102478
0.025204918032786884,1069.7967767715452
0.02530737704918033,1077.9726147651672
0.02540983606557377,1086.4352345466611
0.02551229508196721,1095.1480507850647
0.025614754098360656,1104.0921807289124
0.025717213114754098,1113.2223844528198
0.025819672131147543,1122.5205659866333
0.025922131147540984,1131.8895578384397
0.026024590163934425,1141.2636637687683
0.02612704918032787,1150.6712079048157
0.02622950819672131,1160.0685238838196
0.026331967213114753,1169.4276809692383
0.026434426229508198,1178.5850286483762
0.02653688524590164,1187.5932812690735
0.02663934426229508,1196.4547991752622
0.026741803278688525,1205.039370059967
0.026844262295081966,1213.3587956428526
0.02694672131147541,1221.3717699050903
0.027049180327868853,1228.9885997772217
0.027151639344262294,1236.2431168556213
0.02725409836065574,1243.0755257606504
0.02735655737704918,1249.402034282684
0.02745901639344262,1255.2556872367857
0.027561475409836066,1260.617995262146
0.027663934426229508,1265.4932856559753
0.027766393442622953,1269.777703285217
0.027868852459016394,1273.4771490097046
0.027971311475409835,1276.5904426574705
0.02807377049180328,1279.1203379631042
0.02817622950819672,1281.0872912406921
0.028278688524590163,1282.3902010917664
0.028381147540983608,1282.9802870750427
0.02848360655737705,1282.9680919647215
0.02858606557377049,1282.3701381683347
0.028688524590163935,1281.1136484146118
0.028790983606557376,1279.2245864868164
0.02889344262295082,1276.7375707626343
0.028995901639344263,1273.6262440681455
0.029098360655737704,1269.9169635772705
0.02920081967213115,1265.6848669052124
0.02930327868852459,1260.8681917190552
0.02940573770491803,1255.5200457572937
0.029508196721311476,1249.673867225647
0.029610655737704918,1243.3056592941282
0.02971311475409836,1236.5070819854736
0.029815573770491804,1229.2797088623047
0.029918032786885245,1221.6727137565613
0.03002049180327869,1213.690423965454
0.03012295081967213,1205.4174184799194
0.030225409836065573,1196.8639254570005
0.030327868852459017,1188.0448937416077
0.03043032786885246,1179.0165781974792
0.0305327868852459,1169.86985206604
0.030635245901639345,1160.5598688125608
0.030737704918032786,1151.170027256012
0.03084016393442623,1141.7943477630615
0.030942622950819672,1132.4662685394287
0.031045081967213114,1123.1075048446655
0.03114754098360656,1113.8309597969053
0.03125,1104.655909538269
0.03135245901639344,1095.6834554672241
0.03145491803278688,1086.9859814643858
0.03155737704918033,1078.5347700119019
0.03165983606557377,1070.3671932220457
0.031762295081967214,1062.5284910202026
0.031864754098360655,1055.0745248794556
0.031967213114754096,1048.0147361755369
0.03206967213114754,1041.3636803627014
0.032172131147540986,1035.19846200943
0.03227459016393443,1029.5450448989866
0.03237704918032787,1024.4065761566162
0.03247950819672131,1019.782269001007
0.03258196721311475,1015.731132030487
0.0326844262295082,1012.2519850730896
0.03278688524590164,1009.4258666038513
0.03288934426229508,1007.2252392768859
0.032991803278688524,1005.6158781051636
0.033094262295081965,1004.6013236045836
0.033196721311475406,1004.2213082313538
0.033299180327868855,1004.5761466026306
0.033401639344262296,1005.616271495819
0.03350409836065574,1007.1792125701904
0.03360655737704918,1009.3711853027343
0.03370901639344262,1012.1969103813171
0.03381147540983607,1015.6123280525206
0.03391393442622951,1019.6732997894287
0.03401639344262295,1024.2755770683286
0.03411885245901639,1029.3609380722046
0.034221311475409834,1035.0163221359253
0.03432377049180328,1041.1669850349426
0.03442622950819672,1047.768473625183
0.034528688524590165,1054.7786951065063
0.034631147540983606,1062.2004032135007
0.03473360655737705,1070.0202226638794
0.03483606557377049,1078.2192707061765
0.03493852459016394,1086.6397976875303
0.03504098360655738,1095.365595817566
0.03514344262295082,1104.309332370758
0.03524590163934426,1113.4324550628662
0.0353483606557377,1122.695231437683
0.03545081967213115,1132.0181965827942
0.03555327868852459,1141.3950562477112
0.035655737704918034,1150.784111022949
0.035758196721311475,1160.212504863739
0.035860655737704916,1169.5582866668701
0.03596311475409836,1178.7168145179746
0.036065573770491806,1187.7207398414612
0.03616803278688525,1196.5594410896301
0.03627049180327869,1205.1695823669434
0.03637295081967213,1213.5145783424377
0.03647540983606557,1221.4811325073242
0.03657786885245902,1229.073178768158
0.03668032786885246,1236.4107012748718
0.0367827868852459,1243.3265089988708
0.036885245901639344,1249.7139930725095
0.036987704918032785,1255.5995106697083
0.037090163934426226,1260.9543442726135
0.037192622950819675,1265.7718062400818
0.037295081967213116,1270.0448155403137
0.03739754098360656,1273.7832069396973
0.0375,1276.941740512848
0.03760245901639344,1279.4381976127625
0.03770491803278689,1281.2863469123838
0.03780737704918033,1282.582175731659
0.03790983606557377,1283.2234025001526
0.03801229508196721,1283.1824898719785
0.038114754098360654,1282.56801366806
0.038217213114754095,1281.3406348228452
0.03831967213114754,1279.475963115692
0.038422131147540985,1277.0255327224731
0.038524590163934426,1273.9311218261716
0.03862704918032787,1270.2603936195374
0.03872950819672131,1266.0314440727234
0.03883196721311476,1261.2305045127866
0.0389344262295082,1255.8611154556274
0.03903688524590164,1250.0043153762817
0.03913934426229508,1243.6601042747498
0.03924180327868852,1236.8127465248106
0.039344262295081964,1229.5361995697021
0.03944672131147541,1221.8886852264404
0.03954918032786885,1213.9280319213867
0.039651639344262295,1205.6676149368286
0.039754098360655736,1197.0972061157227
0.03985655737704918,1188.2400155067444
0.039959016393442626,1179.1884899139404
0.04006147540983607,1169.9941635131836
0.04016393442622951,1160.6967687606812
0.04026639344262295,1151.3446927070615
0.04036885245901639,1141.9320344924927
0.04047131147540984,1132.5331449508667
0.04057377049180328,1123.1377959251404
0.04067622950819672,1113.8242721557617
0.04077868852459016,1104.7046899795532
0.040881147540983605,1095.7558393478394
0.040983606557377046,1087.0379090309143
0.041086065573770494,1078.5910248756406
0.041188524590163936,1070.4226613044739
0.04129098360655738,1062.5985145568848
0.04139344262295082,1055.126452445984
0.04149590163934426,1048.0454206466675
0.04159836065573771,1041.3825631141663
0.04170081967213115,1035.194134712219
0.04180327868852459,1029.5371770858762
0.04190573770491803,1024.4211316108701
0.042008196721311473,1019.7952508926392
0.042110655737704915,1015.778338909149
0.04221311475409836,1012.3939990997314
0.042315573770491804,1009.5120191574097
0.042418032786885246,1007.2641849517822
0.04252049180327869,1005.6516766548156
0.04262295081967213,1004.6599388122559
0.04272540983606558,1004.3275237083435
0.04282786885245902,1004.642629623413
0.04293032786885246,1005.6190252304076
0.0430327868852459,1007.2016358375548
0.04313524590163934,1009.4258666038513
0.043237704918032784,1012.2197270393372
0.04334016393442623,1015.664255619049
0.04344262295081967,1019.6858882904052
0.043545081967213115,1024.2323040962217
0.043647540983606556,1029.301929473877
0.04375,1034.9148273468015
0.043852459016393446,1041.0871267318723
0.04395491803278689,1047.660684585571
0.04405737704918033,1054.6893954277039
0.04415983606557377,1062.089467048645
0.04426229508196721,1069.869554042816
0.04436475409836065,1078.0595541000366
0.0444672131147541,1086.4891290664673
0.04456967213114754,1095.1390027999876
0.04467213114754098,1104.0898203849792
0.044774590163934425,1113.180685043335
0.044877049180327866,1122.4706053733826
0.044979508196721314,1131.8226814270017
0.045081967213114756,1141.1330580711365
0.0451844262295082,1150.49968957901
0.04528688524590164,1159.899365901947
0.04538934426229508,1169.1967606544492
0.04549180327868853,1178.3615827560425
0.04559426229508197,1187.402093410492
0.04569672131147541,1196.241581439972
0.04579918032786885,1204.8241853713987
0.04590163934426229,1213.1746888160706
0.046004098360655735,1221.1652398109436
0.04610655737704918,1228.7734150886536
0.046209016393442624,1236.055862903595
0.046311475409836066,1242.9335117340088
0.04641393442622951,1249.3091940879822
0.04651639344262295,1255.1593065261839
0.0466188524590164,1260.5105996131895
0.04672131147540984,1265.3489112854004
0.04682377049180328,1269.6262478828428
0.04692622950819672,1273.3441829681396
0.04702868852459016,1276.4932751655579
0.0471311475409836,1279.0271043777466
0.04723360655737705,1280.9716343879697
0.04733606557377049,1282.3221445083616
0.047438524590163934,1282.9783201217651
0.047540983606557376,1283.0428361892698
0.04764344262295082,1282.495629787445
0.047745901639344265,1281.2686443328855
0.04784836065573771,1279.3874502182005
0.04795081967213115,1276.917743682861
0.04805327868852459,1273.786747455597
0.04815573770491803,1270.152997970581
0.04825819672131147,1265.8937573432922
0.04836065573770492,1261.0959649085999
0.04846311475409836,1255.768275260925
0.0485655737704918,1249.9252438545225
0.048668032786885244,1243.5908675193784
0.048770491803278686,1236.800944805145
0.048872950819672134,1229.5279383659363
0.048975409836065575,1221.9185829162598
0.04907786885245902,1213.9414072036743
0.04918032786885246,1205.6605339050293
0.0492827868852459,1197.0448851585386
0.04938524590163934,1188.2050037384033
0.04948770491803279,1179.2270421981812
0.04959016393442623,1170.0752019882202
0.04969262295081967,1160.7502698898315
0.04979508196721311,1151.3718366622925
0.049897540983606554,1141.9473767280579
0.05,1132.5819253921507
0.050102459016393444,1123.2656478881836
0.050204918032786885,1113.9576315879822
0.05030737704918033,1104.8160195350647
0.05040983606557377,1095.8683490753174
0.050512295081967216,1087.147271633148
0.05061475409836066,1078.7342190742493
0.0507172131147541,1070.548939704895
0.05081967213114754,1062.6972556114197
0.05092213114754098,1055.272400379181
0.05102459016393442,1048.1563568115232
0.05112704918032787,1041.5595889091492
0.05122950819672131,1035.3963375091553
0.051331967213114754,1029.7051548957825
0.051434426229508196,1024.546229839325
0.05153688524590164,1019.9526071548462
0.051639344262295085,1015.9329414367675
0.051741803278688527,1012.4616622924805
