{'sampling_frequency': 9760, 'signal_level': 10, 'signal_level_units': 'mVrms', 'signal_frequency': 105, 'signal_frequency_units': 'Hz'}
Time (s),Voltage (mV)
0.0,1244.0483808517456
0.00010245901639344262,1250.3237485885618
0.00020491803278688525,1256.1888098716736
0.00030737704918032784,1261.4944696426392
0.0004098360655737705,1266.2537097930908
0.0005122950819672131,1270.4480409622192
0.0006147540983606557,1274.0979194641113
0.0007172131147540983,1277.1883964538572
0.000819672131147541,1279.6156167984007
0.0009221311475409836,1281.4326882362366
0.0010245901639344263,1282.6903581619263
0.001127049180327869,1283.275330066681
0.0012295081967213114,1283.2261562347412
0.001331967213114754,1282.5408697128296
0.0014344262295081967,1281.223404407501
0.0015368852459016393,1279.2544841766355
0.001639344262295082,1276.7060995101929
0.0017418032786885246,1273.5499262809753
0.0018442622950819673,1269.794225692749
0.00194672131147541,1265.5046939849851
0.0020491803278688526,1260.6077671051023
0.002151639344262295,1255.1872372627258
0.002254098360655738,1249.310767650604
0.0023565573770491805,1242.9075479507446
0.0024590163934426227,1236.0342264175415
0.0025614754098360654,1228.770661354065
0.002663934426229508,1221.138882637024
0.0027663934426229507,1213.1219744682312
0.0028688524590163933,1204.7946810722349
0.002971311475409836,1196.1987018585205
0.0030737704918032786,1187.356460094452
0.0031762295081967213,1178.3242106437683
0.003278688524590164,1169.1117882728577
0.0033811475409836066,1159.7589254379272
0.0034836065573770492,1150.369083881378
0.003586065573770492,1140.9438371658325
0.0036885245901639345,1131.5398335456848
0.003790983606557377,1122.1582531929016
0.00389344262295082,1112.8974437713623
0.003995901639344262,1103.7876963615415
0.004098360655737705,1094.8616623878477
0.004200819672131147,1086.127209663391
0.00430327868852459,1077.6582956314087
0.004405737704918033,1069.501733779907
0.004508196721311476,1061.6764068603516
0.004610655737704918,1054.2649269104004
0.004713114754098361,1047.2389698028564
0.004815573770491803,1040.6130909919736
0.0049180327868852455,1034.485638141632
0.0050204918032786885,1028.934895992279
0.005122950819672131,1023.8747119903564
0.005225409836065574,1019.3432450294495
0.005327868852459016,1015.370786190033
0.005430327868852459,1011.9663834571837
0.005532786885245901,1009.220516681671
0.0056352459016393444,1007.1056485176086
0.005737704918032787,1005.5438876152039
0.00584016393442623,1004.5434951782227
0.005942622950819672,1004.2492389678954
0.006045081967213115,1004.6548247337341
0.006147540983606557,1005.6996703147887
0.00625,1007.3302745819091
0.0063524590163934426,1009.5722079277039
0.006454918032786886,1012.4235033988953
0.006557377049180328,1015.9050107002258
0.00665983606557377,1019.9762105941772
0.006762295081967213,1024.554884433746
0.006864754098360655,1029.7024011611936
0.0069672131147540985,1035.3727340698242
0.007069672131147541,1041.5324449539185
0.007172131147540984,1048.170518875122
0.007274590163934426,1055.285382270813
0.007377049180327869,1062.7708196640012
0.007479508196721311,1070.6567287445068
0.007581967213114754,1078.8479089736938
0.007684426229508197,1087.3054146766663
0.00778688524590164,1096.0713386535642
0.007889344262295083,1105.0477266311646
0.007991803278688524,1114.211368560791
0.008094262295081967,1123.4859466552734
0.00819672131147541,1132.785701751709
0.008299180327868852,1142.1417117118835
0.008401639344262295,1151.6031503677368
0.008504098360655738,1160.919427871704
0.00860655737704918,1170.2266573905945
0.008709016393442622,1179.4013142585752
0.008811475409836065,1188.4099602699278
0.008913934426229508,1197.2592830657957
0.009016393442622951,1205.8666706085203
0.009118852459016393,1214.1019105911255
0.009221311475409836,1222.0212578773496
0.009323770491803279,1229.6404480934143
0.009426229508196722,1236.8898510932922
0.009528688524590163,1243.6852812767027
0.009631147540983606,1250.000774860382
0.00973360655737705,1255.8237433433533
0.009836065573770491,1261.123502254486
0.009938524590163934,1265.8961176872251
0.010040983606557377,1270.1305747032166
0.01014344262295082,1273.7934350967405
0.010245901639344262,1276.8854856491087
0.010348360655737705,1279.3485045433044
0.010450819672131148,1281.182885169983
0.01055327868852459,1282.4326872825623
0.010655737704918032,1283.0577850341795
0.010758196721311475,1283.0330014228819
0.010860655737704918,1282.3854804039001
0.010963114754098361,1281.0503125190733
0.011065573770491803,1279.0872931480405
0.011168032786885246,1276.5471696853635
0.011270491803278689,1273.3866691589355
0.011372950819672132,1269.6777820587158
0.011475409836065573,1265.4138207435608
0.011577868852459016,1260.5853438377378
0.01168032786885246,1255.1408171653745
0.0117827868852459,1249.211239814758
0.011885245901639344,1242.7643537521362
0.011987704918032787,1235.931158065796
0.01209016393442623,1228.650677204132
0.012192622950819671,1220.982313156128
0.012295081967213115,1213.0102515220642
0.012397540983606558,1204.7136425971985
0.0125,1196.0787177085876
0.012602459016393442,1187.2231006622314
0.012704918032786885,1178.1766891479492
0.012807377049180328,1168.9371228218076
0.012909836065573771,1159.6184849739075
0.013012295081967213,1150.2494931221008
0.013114754098360656,1140.86594581604
0.013217213114754099,1131.5189838409424
0.01331967213114754,1122.147238254547
0.013422131147540983,1112.8482699394226
0.013524590163934426,1103.7817955017088
0.01362704918032787,1094.820749759674
0.01372950819672131,1086.1323237419126
0.013831967213114754,1077.766478061676
0.013934426229508197,1069.6197509765623
0.01403688524590164,1061.8329763412476
0.014139344262295081,1054.3821573257446
0.014241803278688524,1047.352659702301
0.014344262295081968,1040.7405495643616
0.01444672131147541,1034.585165977478
0.014549180327868852,1028.9726614952085
0.014651639344262295,1023.9042162895203
0.014754098360655738,1019.3774700164795
0.01485655737704918,1015.4175996780394
0.014959016393442623,1011.9813323020934
0.015061475409836066,1009.1977000236511
0.015163934426229509,1007.0615887641907
0.01526639344262295,1005.5163502693176
0.015368852459016393,1004.5549035072326
0.015471311475409836,1004.2578935623168
0.01557377049180328,1004.6221733093262
0.01567622950819672,1005.6835412979126
0.015778688524590165,1007.314932346344
0.015881147540983607,1009.5749616622925
0.015983606557377048,1012.4624490737915
0.016086065573770493,1015.9514307975768
0.016188524590163934,1019.9773907661438
0.016290983606557376,1024.567472934723
0.01639344262295082,1029.6937465667725
0.016495901639344262,1035.4104995727537
0.016598360655737703,1041.7342543601987
0.016700819672131148,1048.4006524085999
0.01680327868852459,1055.4380178451536
0.016905737704918034,1062.952172756195
0.017008196721311476,1070.7535028457642
0.017110655737704917,1078.9324879646301
0.01721311475409836,1087.4202847480774
0.017315573770491803,1096.1268067359924
0.017418032786885244,1105.0886392593384
0.01752049180327869,1114.2105817794798
0.01762295081967213,1123.511517047882
0.017725409836065575,1132.8930974006653
0.017827868852459017,1142.3226714134216
0.017930327868852458,1151.7420172691343
0.018032786885245903,1161.109435558319
0.018135245901639344,1170.420205593109
0.018237704918032786,1179.5893549919128
0.01834016393442623,1188.5511875152588
0.018442622950819672,1197.3462224006653
0.018545081967213113,1205.9067964553833
0.018647540983606558,1214.2163872718809
0.01875,1222.1439957618713
0.018852459016393444,1229.7210931777954
0.018954918032786885,1236.9118809700012
0.019057377049180327,1243.700623512268
0.01915983606557377,1250.0432610511778
0.019262295081967213,1255.9008479118345
0.019364754098360654,1261.215555667877
0.0194672131147541,1265.9850239753723
0.01956967213114754,1270.1978445053098
0.019672131147540982,1273.8520503044128
0.019774590163934427,1276.95472240448
0.019877049180327868,1279.3898105621338
0.019979508196721313,1281.2182903289795
0.020081967213114754,1282.4350476264951
0.020184426229508196,1283.055031299591
0.02028688524590164,1282.9669117927551
0.02038934426229508,1282.2438597679138
0.020491803278688523,1280.9106588363645
0.020594262295081968,1279.0235638618467
0.02069672131147541,1276.5038967132566
0.020799180327868854,1273.3433961868286
0.020901639344262295,1269.6227073669434
0.021004098360655737,1265.3308153152466
0.02110655737704918,1260.4421496391296
0.021209016393442623,1255.0739407539365
0.021311475409836064,1249.2037653923035
0.02141393442622951,1242.8170680999756
0.02151639344262295,1235.946500301361
0.021618852459016392,1228.70614528656
0.021721311475409837,1221.0739731788635
0.021823770491803278,1213.0897164344788
0.021926229508196723,1204.751408100128
0.022028688524590164,1196.1581826210022
0.022131147540983605,1187.3057126998901
0.02223360655737705,1178.3198833465576
0.02233606557377049,1169.1586017608643
0.022438524590163933,1159.828162193298
0.022540983606557378,1150.4080295562744
0.02264344262295082,1140.9819960594177
0.022745901639344264,1131.5622568130493
0.022848360655737705,1122.2188353538513
0.022950819672131147,1112.9753351211546
0.02305327868852459,1103.8793563842773
0.023155737704918033,1094.921851158142
0.023258196721311474,1086.2440466880798
0.02336065573770492,1077.8010964393616
0.02346311475409836,1069.625651836395
0.0235655737704918,1061.807405948639
0.023668032786885247,1054.3546199798584
0.023770491803278688,1047.3184347152708
0.023872950819672133,1040.7200932502747
0.023975409836065574,1034.6130967140198
0.024077868852459015,1028.9750218391418
0.02418032786885246,1023.8853335380553
0.0242827868852459,1019.3074464797974
0.024385245901639343,1015.3424620628357
0.024487704918032788,1011.924684047699
0.02459016393442623,1009.1520667076111
0.02469262295081967,1007.023823261261
0.024795081967213115,1005.4648160934447
0.024897540983606557,1004.4364929199219
0.025,1004.1241407394408
0.025102459016393443,1004.4911742210387
0.025204918032786884,1005.5010080337523
0.02530737704918033,1007.1186304092407
0.02540983606557377,1009.3908548355101
0.02551229508196721,1012.2193336486815
0.025614754098360656,1015.674877166748
0.025717213114754098,1019.7803020477294
0.025819672131147543,1024.3873000144958
0.025922131147540984,1029.5336365699768
0.026024590163934425,1035.2496027946472
0.02612704918032787,1041.4191484451294
0.02622950819672131,1048.0300784111023
0.026331967213114753,1055.1233053207395
0.026434426229508198,1062.6142501831055
0.02653688524590164,1070.4659342765808
0.02663934426229508,1078.6712765693665
0.026741803278688525,1087.1669411659238
0.026844262295081966,1095.886445045471
0.02694672131147541,1104.8828959465027
0.027049180327868853,1114.0402436256409
0.027151639344262294,1123.3187556266785
0.02725409836065574,1132.6779127120972
0.02735655737704918,1142.130696773529
0.02745901639344262,1151.5830874443054
0.027561475409836066,1161.01895570755
0.027663934426229508,1170.3010082244873
0.027766393442622953,1179.4599294662476
0.027868852459016394,1188.4670019149778
0.027971311475409835,1197.2899675369263
0.02807377049180328,1205.8591961860657
0.02817622950819672,1214.1703605651855
0.028278688524590163,1222.138488292694
0.028381147540983608,1229.7675132751465
0.02848360655737705,1237.0298981666565
0.02858606557377049,1243.8516855239868
0.028688524590163935,1250.2029776573181
0.028790983606557376,1256.0141444206236
0.02889344262295082,1261.3048553466797
0.028995901639344263,1266.1124825477598
0.029098360655737704,1270.3654289245605
0.02920081967213115,1274.0326166152954
0.02930327868852459,1277.098309993744
0.02940573770491803,1279.5660495758057
0.029508196721311476,1281.4098715782166
0.029610655737704918,1282.6510190963745
0.02971311475409836,1283.2328438758848
0.029815573770491804,1283.1832766532898
0.029918032786885245,1282.5857162475584
0.03002049180327869,1281.2501549720762
0.03012295081967213,1279.273760318756
0.030225409836065573,1276.7588138580322
0.030327868852459017,1273.6077547073364
0.03043032786885246,1269.9232578277586
0.0305327868852459,1265.6443476676939
0.030635245901639345,1260.775351524353
0.030737704918032786,1255.4098963737488
0.03084016393442623,1249.544835090637
0.030942622950819672,1243.1770205497742
0.031045081967213114,1236.2749814987183
0.03114754098360656,1229.0066957473755
0.03125,1221.339511871338
0.03135245901639344,1213.3143424987793
0.03145491803278688,1204.9795746803281
0.03155737704918033,1196.3359951972961
0.03165983606557377,1187.4784111976624
0.031762295081967214,1178.473699092865
0.031864754098360655,1169.2471146583557
0.031967213114754096,1159.8926782608032
0.03206967213114754,1150.5228996276855
0.032172131147540986,1141.1188960075378
0.03227459016393443,1131.7620992660522
0.03237704918032787,1122.3722577095032
0.03247950819672131,1113.092565536499
0.03258196721311475,1103.9655089378357
0.0326844262295082,1094.996988773346
0.03278688524590164,1086.2778782844541
0.03288934426229508,1077.843189239502
0.032991803278688524,1069.6618437767029
0.033094262295081965,1061.8258953094482
0.033196721311475406,1054.4738173484802
0.033299180327868855,1047.4824786186218
0.033401639344262296,1040.8943653106687
0.03350409836065574,1034.8451972007751
0.03360655737704918,1029.3086171150208
0.03370901639344262,1024.1201877593992
0.03381147540983607,1019.5344328880309
0.03391393442622951,1015.5411243438721
0.03401639344262295,1012.1312141418457
0.03411885245901639,1009.3149304389952
0.034221311475409834,1007.1186304092407
0.03432377049180328,1005.5820465087891
0.03442622950819672,1004.6394824981688
0.034528688524590165,1004.3786644935608
0.034631147540983606,1004.7468781471251
0.03473360655737705,1005.7637929916381
0.03483606557377049,1007.3672533035278
0.03493852459016394,1009.6009254455566
0.03504098360655738,1012.4250769615173
0.03514344262295082,1015.8845543861388
0.03524590163934426,1019.9124813079834
0.0353483606557377,1024.5057106018064
0.03545081967213115,1029.6642422676086
0.03555327868852459,1035.3455901145933
0.035655737704918034,1041.5399193763733
0.035758196721311475,1048.169732093811
0.035860655737704916,1055.2425026893616
0.03596311475409836,1062.7664923667908
0.036065573770491806,1070.6457138061523
0.03616803278688525,1078.8416147232056
0.03627049180327869,1087.3132824897766
0.03637295081967213,1096.0162639617918
0.03647540983606557,1104.940330982208
0.03657786885245902,1114.0579462051392
0.03668032786885246,1123.3447194099426
0.0367827868852459,1132.731020450592
0.036885245901639344,1142.111814022064
0.036987704918032785,1151.4989018440247
0.037090163934426226,1160.9265089035034
0.037192622950819675,1170.2624559402466
0.037295081967213116,1179.3883323669434
0.03739754098360656,1188.4174346923828
0.0375,1197.233712673187
0.03760245901639344,1205.8194637298582
0.03770491803278689,1214.091682434082
0.03780737704918033,1222.0558762550354
0.03790983606557377,1229.6310067176819
0.03801229508196721,1236.8811964988708
0.038114754098360654,1243.6644315719602
0.038217213114754095,1249.9260306358337
0.03831967213114754,1255.7851910591125
0.038422131147540985,1261.1777901649475
0.038524590163934426,1265.9511923789976
0.03862704918032787,1270.176601409912
0.03872950819672131,1273.8142848014832
0.03883196721311476,1276.8485069274902
0.0389344262295082,1279.304051399231
0.03903688524590164,1281.2147498130796
0.03913934426229508,1282.5003504753113
0.03924180327868852,1283.1049919128416
0.039344262295081964,1283.1148266792295
0.03944672131147541,1282.459044456482
0.03954918032786885,1281.106173992157
0.039651639344262295,1279.1699051856992
0.039754098360655736,1276.6640067100523
0.03985655737704918,1273.480689525604
0.039959016393442626,1269.743478298187
0.04006147540983607,1265.4189348220823
0.04016393442622951,1260.5581998825073
0.04026639344262295,1255.1915645599365
0.04036885245901639,1249.2867708206177
0.04047131147540984,1242.8674221038818
0.04057377049180328,1236.024785041809
0.04067622950819672,1228.7635803222656
0.04077868852459016,1221.1133122444153
0.040881147540983605,1213.129448890686
0.040983606557377046,1204.8202514648435
0.041086065573770494,1196.226632595062
0.041188524590163936,1187.3753428459165
0.04129098360655738,1178.3564686775208
0.04139344262295082,1169.1912531852722
0.04149590163934426,1159.8442912101746
0.04159836065573771,1150.3785252571106
0.04170081967213115,1140.9088253974915
0.04180327868852459,1131.4713835716248
0.04190573770491803,1122.0776081085205
0.042008196721311473,1112.7739191055298
0.042110655737704915,1103.672432899475
0.04221311475409836,1094.730269908905
0.042315573770491804,1086.0217809677124
0.042418032786885246,1077.6162028312683
0.04252049180327869,1069.4631814956665
0.04262295081967213,1061.6834878921509
0.04272540983606558,1054.2527318000793
0.04282786885245902,1047.2326755523682
0.04293032786885246,1040.670919418335
0.0430327868852459,1034.5359921455383
0.04313524590163934,1028.8951635360718
0.043237704918032784,1023.8216042518616
0.04334016393442623,1019.3074464797974
0.04344262295081967,1015.3519034385681
0.043545081967213115,1011.9451403617859
0.043647540983606556,1009.1567873954772
0.04375,1007.0002198219299
0.043852459016393446,1005.4502606391907
0.04395491803278689,1004.499042034149
0.04405737704918033,1004.2598605155944
0.04415983606557377,1004.6599388122559
0.04426229508196721,1005.6383013725281
0.04436475409836065,1007.2736263275146
0.0444672131147541,1009.5021843910217
0.04456967213114754,1012.3558402061461
0.04467213114754098,1015.8688187599181
0.044774590163934425,1019.9522137641906
0.044877049180327866,1024.5552778244019
0.044979508196721314,1029.7212839126587
0.045081967213114756,1035.4069590568542
0.0451844262295082,1041.6075825691223
0.04528688524590164,1048.2440829277039
0.04538934426229508,1055.3113460540771
0.04549180327868853,1062.8066182136536
0.04559426229508197,1070.6409931182861
0.04569672131147541,1078.794801235199
0.04579918032786885,1087.2161149978635
0.04590163934426229,1095.929718017578
0.046004098360655735,1104.8954844474792
0.04610655737704918,1114.0150666236877
0.046209016393442624,1123.2975125312805
0.046311475409836066,1132.687747478485
0.04641393442622951,1142.1153545379639
0.04651639344262295,1151.5728592872617
0.0466188524590164,1160.9910249710083
0.04672131147540984,1170.2632427215576
0.04682377049180328,1179.438292980194
0.04692622950819672,1188.4445786476135
0.04702868852459016,1197.3013758659363
0.0471311475409836,1205.97642660141
0.04723360655737705,1214.2557263374326
0.04733606557377049,1222.1880555152893
0.047438524590163934,1229.7871828079224
0.047540983606557376,1237.030291557312
0.04764344262295082,1243.8261151313782
0.047745901639344265,1250.1762270927427
0.04784836065573771,1255.99604845047
0.04795081967213115,1261.3308191299436
0.04805327868852459,1266.1089420318604
0.04815573770491803,1270.3496932983398
0.04825819672131147,1273.9814758300781
0.04836065573770492,1277.0963430404663
0.04846311475409836,1279.5593619346616
0.0485655737704918,1281.4503908157349
0.048668032786885244,1282.6899647712705
0.048770491803278686,1283.275330066681
0.048872950819672134,1283.2237958908079
0.048975409836065575,1282.5404763221738
0.04907786885245902,1281.2411069869993
0.04918032786885246,1279.3056249618528
0.0492827868852459,1276.7521262168884
0.04938524590163934,1273.6400127410886
0.04948770491803279,1269.9138164520264
0.04959016393442623,1265.6160235404968
0.04969262295081967,1260.7773184776306
0.04979508196721311,1255.3666234016418
0.049897540983606554,1249.5664715766904
0.05,1243.2305216789246
0.050102459016393444,1236.3631010055542
0.050204918032786885,1229.1018962860107
0.05030737704918033,1221.4083552360535
0.05040983606557377,1213.4260654449463
0.050512295081967216,1205.1101803779602
0.05061475409836066,1196.5165615081787
0.0507172131147541,1187.6747131347656
0.05081967213114754,1178.6959648132324
0.05092213114754098,1169.5024251937866
0.05102459016393442,1160.1597905158997
0.05112704918032787,1150.7467389106748
0.05122950819672131,1141.3313269615173
0.051331967213114754,1131.9391250610352
0.051434426229508196,1122.5646257400513
0.05153688524590164,1113.2440209388733
0.051639344262295085,1104.1146039962769
0.051741803278688527,1095.1720476150513
