{'sampling_frequency': 9760, 'signal_level': 100, 'signal_level_units': 'mVrms', 'signal_frequency': 205, 'signal_frequency_units': 'Hz'}
Time (s),Voltage (mV)
0.0,2534.036529064178
0.00010245901639344262,2504.6372652053833
0.00020491803278688525,2451.9410133361816
0.00030737704918032784,2376.78884267807
0.0004098360655737705,2280.2779197692867
0.0005122950819672131,2163.9861345291138
0.0006147540983606557,2029.6864986419675
0.0007172131147540983,1880.134320259094
0.000819672131147541,1717.8130745887756
0.0009221311475409836,1545.5319643020628
0.0010245901639344263,1366.3082957267761
0.001127049180327869,1183.0932855606077
0.0012295081967213114,999.3208408355713
0.001331967213114754,817.8760886192321
0.0014344262295081967,642.26256608963
0.0015368852459016393,475.5742907524109
0.001639344262295082,320.3801035881042
0.0017418032786885246,179.29959297180176
0.0018442622950819673,60.60104370117187
0.00194672131147541,5.66561222076416
0.0020491803278688526,0.9952783584594727
0.002151639344262295,0.7140040397644043
0.002254098360655738,0.4449248313903808
0.0023565573770491805,0.30291080474853516
0.0024590163934426227,0.3768682479858398
0.0025614754098360654,0.6239175796508788
0.002663934426229508,0.8843421936035156
0.0027663934426229507,2.1384716033935547
0.0028688524590163933,39.640796184539795
0.002971311475409836,151.55847072601316
0.0030737704918032786,289.33095932006836
0.0031762295081967213,441.64828062057495
0.003278688524590164,606.285810470581
0.0033811475409836066,780.3273439407347
0.0034836065573770492,960.8755588531493
0.003586065573770492,1144.43085193634
0.0036885245901639345,1328.0164361000059
0.003790983606557377,1508.3522200584412
0.00389344262295082,1682.2525262832642
0.003995901639344262,1846.820032596588
0.004098360655737705,1999.1963624954224
0.004200819672131147,2136.8874192237854
0.00430327868852459,2257.2448968887325
0.004405737704918033,2358.1857919692993
0.004508196721311476,2438.0846142768855
0.004610655737704918,2495.5601692199707
0.004713114754098361,2529.778468608856
0.004815573770491803,2540.0365233421326
0.0049180327868852455,2526.1160016059875
0.0050204918032786885,2488.140821456909
0.005122950819672131,2427.2160172462463
0.005225409836065574,2344.035530090332
0.005327868852459016,2240.059626102447
0.005430327868852459,2116.8567538261414
0.005532786885245901,1976.6365885734558
0.0056352459016393444,1822.3881125450134
0.005737704918032787,1656.1986565589903
0.00584016393442623,1481.0776591300962
0.005942622950819672,1299.992859363556
0.006045081967213115,1116.2031054496763
0.006147540983606557,932.9424619674683
0.00625,753.2302021980285
0.0063524590163934426,580.3932309150696
0.006454918032786886,417.45160818099976
0.006557377049180328,267.18621253967285
0.00665983606557377,132.31379985809323
0.006762295081967213,31.130969524383545
0.006864754098360655,1.9425630569458008
0.0069672131147540985,0.8949637413024902
0.007069672131147541,0.6188035011291504
0.007172131147540984,0.3737211227416992
0.007274590163934426,0.3080248832702636
0.007377049180327869,0.4508256912231445
0.007479508196721311,0.6931543350219725
0.007581967213114754,0.9614467620849609
0.007684426229508197,7.219111919403075
0.00778688524590164,74.23006296157837
0.007889344262295083,199.90775585174558
0.007991803278688524,343.19833517074585
0.008094262295081967,500.3921270370483
0.00819672131147541,668.6673402786254
0.008299180327868852,845.378029346466
0.008401639344262295,1027.3928046226501
0.008504098360655738,1211.2069487571714
0.00860655737704918,1394.0494179725647
0.008709016393442622,1572.293150424957
0.008811475409836065,1743.1730031967163
0.008913934426229508,1903.6083340644836
0.009016393442622951,2051.0066986083984
0.009118852459016393,2182.68438577652
0.009221311475409836,2296.1764097213745
0.009323770491803279,2389.688515663147
0.009426229508196722,2461.7085099220276
0.009528688524590163,2510.8827352523804
0.009631147540983606,2536.644315719604
0.00973360655737705,2538.1175637245174
0.009836065573770491,2515.1494503021236
0.009938524590163934,2468.746268749237
0.010040983606557377,2399.4776487350464
0.01014344262295082,2308.6209297180176
0.010245901639344262,2197.5706815719604
0.010348360655737705,2068.03697347641
0.010450819672131148,1922.3427772521973
0.01055327868852459,1763.3944630622861
0.010655737704918032,1593.54647397995
0.010758196721311475,1415.9970760345457
0.010860655737704918,1233.441388607025
0.010963114754098361,1049.517488479614
0.011065573770491803,867.1466946601867
0.011168032786885246,689.6681070327758
0.011270491803278689,520.1836109161376
0.011372950819672132,361.53191328048706
0.011475409836065573,216.40183925628662
0.011577868852459016,89.126980304718
0.01168032786885246,12.810766696929932
0.0117827868852459,1.1239171028137207
0.011885245901639344,0.7899284362792969
0.011987704918032787,0.5255699157714844
0.01209016393442623,0.3233671188354492
0.012192622950819671,0.3253340721130371
0.012295081967213115,0.5369782447814941
0.012397540983606558,0.8076310157775879
0.0125,1.17112398147583
0.012602459016393442,21.30643129348755
0.012704918032786885,116.91373586654663
0.012807377049180328,250.33925771713257
0.012909836065573771,398.8729476928711
0.013012295081967213,560.4109525680542
0.013114754098360656,732.2196006774901
0.013217213114754099,911.2485408782959
0.01331967213114754,1094.2499399185178
0.013422131147540983,1278.0609369277954
0.013524590163934426,1459.640622138977
0.01362704918032787,1635.552728176117
0.01372950819672131,1802.9691696166992
0.013831967213114754,1958.8875889778137
0.013934426229508197,2100.859522819519
0.01403688524590164,2226.189064979553
0.014139344262295081,2332.566225528717
0.014241803278688524,2418.3371901512146
0.014344262295081968,2481.96222782135
0.01444672131147541,2522.6573109626765
0.014549180327868852,2539.577829837799
0.014651639344262295,2532.3296070098877
0.014754098360655738,2501.017677783966
0.01485655737704918,2446.151876449585
0.014959016393442623,2368.8785433769226
0.015061475409836066,2270.4175829887386
0.015163934426229509,2152.3645877838135
0.01526639344262295,2016.5956377983093
0.015368852459016393,1865.9097075462341
0.015471311475409836,1702.6773691177368
0.01557377049180328,1529.7247409820557
0.01567622950819672,1349.9680280685425
0.015778688524590165,1166.5752053260803
0.015881147540983607,982.9306125640869
0.015983606557377048,801.8997073173523
0.016086065573770493,626.9148230552672
0.016188524590163934,461.0322117805481
0.016290983606557376,306.99183940887445
0.01639344262295082,167.41329431533813
0.016495901639344262,52.3123025894165
0.016598360655737703,4.29149866104126
0.016700819672131148,0.9720683097839354
0.01680327868852459,0.6789922714233397
0.016905737704918034,0.40401220321655273
0.017008196721311476,0.2737998962402343
0.017110655737704917,0.387883186340332
0.01721311475409836,0.6317853927612304
0.017315573770491803,0.9036183357238768
0.017418032786885244,2.8571963310241695
0.01752049180327869,47.14629650115967
0.01762295081967213,163.34130764007568
0.017725409836065575,302.53905057907104
0.017827868852459017,456.1848521232605
0.017930327868852458,621.694529056549
0.018032786885245903,796.4256763458252
0.018135245901639344,977.3287296295166
0.018237704918032786,1161.0079407691956
0.01834016393442623,1344.4357752799988
0.018442622950819672,1524.2688059806824
0.018545081967213113,1697.4590420722961
0.018647540983606558,1861.1111283302307
0.01875,2012.2958779335022
0.018852459016393444,2148.61478805542
0.018954918032786885,2267.24134683609
0.019057377049180327,2366.171622276306
0.01915983606557377,2444.035041332245
0.019262295081967213,2499.505877494812
0.019364754098360654,2531.7320466041565
0.0194672131147541,2539.911818504333
0.01956967213114754,2523.630166053772
0.019672131147540982,2483.600699901581
0.019774590163934427,2420.6345915794373
0.019877049180327868,2335.512328147888
0.019979508196721313,2229.942798614502
0.020081967213114754,2105.273759365082
0.020184426229508196,1963.629126548767
0.02028688524590164,1808.011257648468
0.02038934426229508,1640.7950520515442
0.020491803278688523,1464.9993896484375
0.020594262295081968,1283.5208058357236
0.02069672131147541,1099.6480464935303
0.020799180327868854,916.4857506752013
0.020901639344262295,737.2947335243225
0.021004098360655737,565.3432846069336
0.02110655737704918,403.4854531288147
0.021209016393442623,254.4761538505554
0.021311475409836064,121.24457359313965
0.02141393442622951,25.496041774749756
0.02151639344262295,1.5873312950134277
0.021618852459016392,0.8520841598510741
0.021721311475409837,0.5794644355773926
0.021823770491803278,0.355231761932373
0.021926229508196723,0.3080248832702636
0.022028688524590164,0.485837459564209
0.022131147540983605,0.7313132286071777
0.02223360655737705,0.9838700294494628
0.02233606557377049,9.664034843444824
0.022438524590163933,84.26073789596556
0.022540983606557378,212.17525005340576
0.02264344262295082,356.7589044570922
0.022745901639344264,515.0002956390381
0.022848360655737705,684.1885685920714
0.022950819672131147,861.5448117256163
0.02305327868852459,1043.8687920570374
0.023155737704918033,1227.677035331726
0.023258196721311474,1410.2460980415344
0.02336065573770492,1588.0515933036802
0.02346311475409836,1758.2064270973206
0.0235655737704918,1917.520987987518
0.023668032786885247,2063.485050201416
0.023770491803278688,2193.5514092445374
0.023872950819672133,2305.2460312843323
0.023975409836065574,2397.009515762329
0.024077868852459015,2466.8745160102844
0.02418032786885246,2513.974392414093
0.0242827868852459,2537.5333786010738
0.024385245901639343,2536.7493510246277
0.024487704918032788,2511.8803739547725
0.02459016393442623,2463.4984374046326
0.02469262295081967,2392.3313140869136
0.024795081967213115,2299.644935131073
0.024897540983606557,2186.6426825523376
0.025,2055.284821987152
0.025102459016393443,1908.4108471870422
0.025204918032786884,1748.446011543274
0.02530737704918033,1577.7553796768186
0.02540983606557377,1399.6457934379575
0.02551229508196721,1216.8796420097349
0.025614754098360656,1033.0100297927856
0.025717213114754098,850.9094953536986
0.025819672131147543,673.9340543746948
0.025922131147540984,505.2560091018676
0.026024590163934425,347.66646623611445
0.02612704918032787,203.97069454193115
0.02622950819672131,79.2481541633606
0.026331967213114753,9.885907173156738
0.026434426229508198,1.0550737380981445
0.02653688524590164,0.7584571838378906
0.02663934426229508,0.48662424087524414
0.026741803278688525,0.297403335571289
0.026844262295081966,0.3489375114440918
0.02694672131147541,0.5743503570556641
0.027049180327868853,0.8221864700317383
0.027151639344262294,1.3308405876159668
0.02725409836065574,26.581013202667233
0.02735655737704918,128.21388244628906
0.02745901639344262,263.20903301239014
0.027561475409836066,413.0857586860657
0.027663934426229508,575.6182551383971
0.027766393442622953,748.0893731117249
0.027868852459016394,927.6206731796264
0.027971311475409835,1110.8758091926575
0.02807377049180328,1294.6624159812927
0.02817622950819672,1475.8219599723814
0.028278688524590163,1651.1093616485596
0.028381147540983608,1817.6324129104612
0.02848360655737705,1972.4099993705747
0.02858606557377049,2113.053846359253
0.028688524590163935,2236.7268204689026
0.028790983606557376,2341.297924518585
0.02889344262295082,2425.082266330719
0.028995901639344263,2486.7690682411194
0.029098360655737704,2525.460612773895
0.02920081967213115,2540.193486213684
0.02930327868852459,2530.5998682975764
0.02940573770491803,2497.0345973968506
0.029508196721311476,2440.155029296875
0.029610655737704918,2360.9977483749385
0.02971311475409836,2260.706734657287
0.029815573770491804,2141.038477420807
0.029918032786885245,2003.7557601928709
0.03002049180327869,1851.783049106598
0.03012295081967213,1687.562119960785
0.030225409836065573,1513.8801455497742
0.030327868852459017,1333.6549043655396
0.03043032786885246,1150.077974796295
0.0305327868852459,966.4770483970642
0.030635245901639345,785.8497619628906
0.030737704918032786,611.5631461143494
0.03084016393442623,446.7049241065979
0.030942622950819672,293.83331537246704
0.031045081967213114,155.8200716972351
0.03114754098360656,44.705307483673096
0.03125,3.251767158508301
0.03135245901639344,0.9409904479980468
0.03145491803278688,0.6530284881591797
0.03155737704918033,0.4036188125610351
0.03165983606557377,0.30527114868164057
0.031762295081967214,0.4291892051696777
0.031864754098360655,0.655388832092285
0.031967213114754096,0.9201407432556152
0.03206967213114754,3.8674235343933105
0.032172131147540986,55.484998226165764
0.03227459016393443,175.30864477157593
0.03237704918032787,315.8321142196655
0.03247950819672131,470.6938862800598
0.03258196721311475,637.1166229248047
0.0326844262295082,812.4945044517516
0.03278688524590164,993.8047170639037
0.03288934426229508,1177.535855770111
0.032991803278688524,1360.7854843139648
0.033094262295081965,1540.114188194275
0.033196721311475406,1712.671458721161
0.033299180327868855,1875.2373933792112
0.033401639344262296,2025.0688791275024
0.03350409836065574,2159.8991990089417
0.03360655737704918,2276.6905903816223
0.03370901639344262,2373.952889442444
0.03381147540983607,2449.916625022888
0.03391393442622951,2503.370153903961
0.03401639344262295,2533.370518684387
0.03411885245901639,2539.3229126930237
0.034221311475409834,2520.974385738373
0.03432377049180328,2478.8894534111023
0.03442622950819672,2413.9426231384277
0.034528688524590165,2327.0107626914973
0.034631147540983606,2219.479393959045
0.03473360655737705,2093.055438995361
0.03483606557377049,1950.0701308250425
0.03493852459016394,1793.466031551361
0.03504098360655738,1625.380039215088
0.03514344262295082,1448.9887833595274
0.03524590163934426,1267.0924186706543
0.0353483606557377,1083.1220984458923
0.03545081967213115,900.2029180526732
0.03555327868852459,721.5473055839539
0.035655737704918034,550.3598213195801
0.035758196721311475,389.40442800521845
0.035860655737704916,241.56664609909058
0.03596311475409836,110.12735366821289
0.036065573770491806,20.590460300445557
0.03616803278688525,1.3587713241577146
0.03627049180327869,0.8355617523193359
0.03637295081967213,0.5507469177246094
0.03647540983606557,0.32651424407958984
0.03657786885245902,0.3025174140930176
0.03668032786885246,0.4940986633300781
0.0367827868852459,0.752556324005127
0.036885245901639344,1.0188817977905273
0.036987704918032785,12.645936012268065
0.037090163934426226,94.47551965713501
0.037192622950819675,224.3377089500427
0.037295081967213116,370.32458782196045
0.03739754098360656,529.6198725700378
0.0375,699.654722213745
0.03760245901639344,877.5861024856567
0.03770491803278689,1060.2000117301939
0.03780737704918033,1244.0892934799192
0.03790983606557377,1426.4128804206848
0.03801229508196721,1603.5543322563171
0.038114754098360654,1772.7131009101865
0.038217213114754095,1930.9261679649353
0.03831967213114754,2075.7434964179993
0.038422131147540985,2204.348409175873
0.038524590163934426,2314.296376705169
0.03862704918032787,2403.9406657218933
0.03872950819672131,2471.6624736785884
0.03883196721311476,2516.782808303833
0.0389344262295082,2538.2898688316345
0.03903688524590164,2535.5436086654663
0.03913934426229508,2508.4936738014217
0.03924180327868852,2457.8922271728516
0.039344262295081964,2384.5425724983215
0.03944672131147541,2289.984834194183
0.03954918032786885,2175.4180669784546
0.039651639344262295,2042.8131580352783
0.039754098360655736,1894.5745110511778
0.03985655737704918,1733.3685278892517
0.039959016393442626,1561.874198913574
0.04006147540983607,1383.2410097122192
0.04016393442622951,1200.2124667167664
0.04026639344262295,1016.4321541786194
0.04036885245901639,834.6317768096924
0.04047131147540984,658.3129048347472
0.04057377049180328,490.6230568885803
0.04067622950819672,334.1330409049987
0.04077868852459016,191.75630807876587
0.040881147540983605,69.71433162689209
0.040983606557377046,7.535791397094726
0.041086065573770494,1.0342240333557127
0.041188524590163936,0.7372140884399414
0.04129098360655738,0.4626274108886718
0.04139344262295082,0.30487775802612305
0.04149590163934426,0.36073923110961914
0.04159836065573771,0.5849719047546386
0.04170081967213115,0.8453965187072754
0.04180327868852459,1.6278505325317383
0.04190573770491803,32.50232934951782
0.042008196721311473,139.39522504806519
0.042110655737704915,275.8431673049926
0.04221311475409836,426.9063591957092
0.042315573770491804,590.5336618423461
0.042418032786885246,763.8423085212706
0.04252049180327869,943.8740015029907
0.04262295081967213,1127.2506952285767
0.04272540983606558,1310.9019756317136
0.04282786885245902,1491.6893720626829
0.04293032786885246,1666.3386940956116
0.0430327868852459,1831.956160068512
0.04313524590163934,1985.5520009994505
0.043237704918032784,2124.837470054626
0.04334016393442623,2246.8546628952026
0.04344262295081967,2349.7286796569824
0.043545081967213115,2431.544494628906
0.043647540983606556,2491.405963897705
0.04375,2527.9196977615356
0.043852459016393446,2540.4700398445125
0.04395491803278689,2528.547942638397
0.04405737704918033,2492.9460883140564
0.04415983606557377,2434.101927280426
0.04426229508196721,2353.1248211860657
0.04436475409836065,2251.0017871856685
0.0444672131147541,2129.623854160309
0.04456967213114754,1990.8619880676267
0.04467213114754098,1837.680387496948
0.044774590163934425,1672.3976969718933
0.044877049180327866,1497.9891300201416
0.044979508196721314,1317.3704981803894
0.045081967213114756,1133.6625695228577
0.0451844262295082,950.2374887466431
0.04528688524590164,770.0818777084351
0.04538934426229508,596.5049386024475
0.04549180327868853,432.54915475845337
0.04559426229508197,280.7833671569824
0.04569672131147541,144.2095398902893
0.04579918032786885,37.67305612564087
0.04590163934426229,2.496063709259033
0.046004098360655735,0.9177803993225098
0.04610655737704918,0.6290316581726074
0.046209016393442624,0.3737211227416992
0.046311475409836066,0.297403335571289
0.04641393442622951,0.4398107528686523
0.04651639344262295,0.679779052734375
0.0466188524590164,0.9287953376770018
0.04672131147540984,5.276942253112793
0.04682377049180328,64.3323540687561
0.04692622950819672,187.2142195701599
0.04702868852459016,329.15114164352417
0.0471311475409836,485.1879715919494
0.04723360655737705,652.5914311408995
0.04733606557377049,828.6215543746947
0.047438524590163934,1010.2681159973143
0.047540983606557376,1194.0157771110532
0.04764344262295082,1377.1281123161314
0.047745901639344265,1555.9446215629578
0.04784836065573771,1727.6482343673704
0.04795081967213115,1889.1791582107542
0.04805327868852459,2037.9256725311277
0.04815573770491803,2171.329951286316
0.04825819672131147,2286.532831192016
0.04836065573770492,2381.7896246910095
0.04846311475409836,2455.679404735565
0.0485655737704918,2507.1592926979065
0.048668032786885244,2535.1061582565303
0.048770491803278686,2538.8610720634456
0.048872950819672134,2518.2501554489136
0.048975409836065575,2474.066090583801
0.04907786885245902,2407.033109664917
0.04918032786885246,2318.244051933288
0.0492827868852459,2208.910953998565
0.04938524590163934,2080.930745601654
0.04948770491803279,1936.6602301597595
0.04959016393442623,1778.9278864860535
0.04969262295081967,1609.927260875702
0.04979508196721311,1432.908546924591
0.049897540983606554,1250.6903886795042
0.05,1066.7723894119263
0.050102459016393444,884.0864896774292
0.050204918032786885,705.951726436615
0.05030737704918033,535.6411099433899
0.05040983606557377,375.8493661880493
0.050512295081967216,229.44037914276123
0.05061475409836066,99.9180793762207
0.0507172131147541,16.495656967163086
0.05081967213114754,1.1904001235961914
0.05092213114754098,0.8025169372558594
0.05102459016393442,0.5401253700256348
0.05112704918032787,0.3276944160461425
0.05122950819672131,0.3296613693237304
0.051331967213114754,0.5283236503601074
0.051434426229508196,0.7828474044799805
0.05153688524590164,1.063728332519531
0.051639344262295085,16.435468196868893
0.051741803278688527,105.27763366699217
0.05184426229508197,237.08907365798947
0.05194672131147541,384.2498302459716
0.05204918032786885,544.6233987808228
