{'sampling_frequency': 9760, 'signal_level': 100, 'signal_level_units': 'mVrms', 'signal_frequency': 205, 'signal_frequency_units': 'Hz'}
Time (s),Voltage (mV)
0.0,2208.1599712371826
0.00010245901639344262,2317.5363421440125
0.00020491803278688525,2406.429648399353
0.00030737704918032784,2473.5169172286987
0.0004098360655737705,2517.924427986145
0.0005122950819672131,2538.6454939842224
0.0006147540983606557,2534.882318973541
0.0007172131147540983,2507.0157051086426
0.000819672131147541,2455.612134933471
0.0009221311475409836,2381.676721572876
0.0010245901639344263,2286.539912223816
0.001127049180327869,2171.2890386581416
0.0012295081967213114,2037.9229187965393
0.001331967213114754,1889.2417073249817
0.0014344262295081967,1727.7194380760193
0.0015368852459016393,1556.008744239807
0.001639344262295082,1377.183973789215
0.0017418032786885246,1194.0889477729797
0.0018442622950819673,1010.294473171234
0.00194672131147541,828.6632537841796
0.0020491803278688526,652.6032328605651
0.002151639344262295,485.1694822311401
0.002254098360655738,329.13894653320307
0.0023565573770491805,187.20517158508298
0.0024590163934426227,66.22062921524048
0.0025614754098360654,6.78480863571167
0.002663934426229508,1.0224223136901853
0.0027663934426229507,0.7411479949951172
0.0028688524590163933,0.4618406295776367
0.002971311475409836,0.30291080474853516
0.0030737704918032786,0.3811955451965332
0.0031762295081967213,0.5885124206542969
0.003278688524590164,0.8548378944396973
0.0033811475409836066,1.7989754676818848
0.0034836065573770492,34.970855712890625
0.003586065573770492,143.62614154815674
0.0036885245901639345,280.5729031562805
0.003790983606557377,432.1624517440796
0.00389344262295082,596.1158752441405
0.003995901639344262,769.701075553894
0.004098360655737705,949.8806834220885
0.004200819672131147,1133.2841277122495
0.00430327868852459,1316.8948888778687
0.004405737704918033,1497.5064396858215
0.004508196721311476,1671.8221664428709
0.004610655737704918,1837.0131969451904
0.004713114754098361,1990.1196599006653
0.004815573770491803,2128.765082359314
0.0049180327868852455,2250.2885699272156
0.0050204918032786885,2352.485954761505
0.005122950819672131,2433.658182621002
0.005225409836065574,2492.555844783783
0.005327868852459016,2528.260374069214
0.005430327868852459,2540.079402923584
0.005532786885245901,2527.5314211845393
0.0056352459016393444,2491.1490797996516
0.005737704918032787,2431.561017036438
0.00584016393442623,2349.816405773163
0.005942622950819672,2246.9199657440186
0.006045081967213115,2124.9106407165527
0.006147540983606557,1985.8993649482725
0.00625,1832.306671142578
0.0063524590163934426,1666.7021870613096
0.006454918032786886,1492.1177744865417
0.006557377049180328,1311.2953662872312
0.00665983606557377,1127.584683895111
0.006762295081967213,944.1977620124816
0.006864754098360655,764.1963601112365
0.0069672131147540985,590.8936142921447
0.007069672131147541,427.33790874481195
0.007172131147540984,276.152765750885
0.007274590163934426,140.1768922805786
0.007377049180327869,35.346150398254395
0.007479508196721311,2.257668972015381
0.007581967213114754,0.9059786796569824
0.007684426229508197,0.6278514862060546
0.00778688524590164,0.385129451751709
0.007889344262295083,0.297403335571289
0.007991803278688524,0.45043230056762695
0.008094262295081967,0.7100701332092285
0.00819672131147541,0.962233543395996
0.008299180327868852,5.922889709472655
0.008401639344262295,67.92243719100952
0.008504098360655738,191.87314510345456
0.00860655737704918,334.29236412048334
0.008709016393442622,490.6332850456238
0.008811475409836065,658.3038568496704
0.008913934426229508,834.5228075981139
0.009016393442622951,1016.2622094154357
0.009118852459016393,1200.1200199127197
0.009221311475409836,1383.2063913345337
0.009323770491803279,1561.864364147186
0.009426229508196722,1733.2737207412717
0.009528688524590163,1894.428563117981
0.009631147540983606,2042.7045822143555
0.00973360655737705,2175.425541400909
0.009836065573770491,2289.946675300598
0.009938524590163934,2384.601581096649
0.010040983606557377,2457.9071760177612
0.01014344262295082,2508.6053967475887
0.010245901639344262,2535.7658743858337
0.010348360655737705,2538.62110376358
0.010450819672131148,2517.178952693939
0.01055327868852459,2472.189223766327
0.010655737704918032,2404.4473528862
0.010758196721311475,2314.875054359436
0.010860655737704918,2204.992389678955
0.010963114754098361,2076.4488458633423
0.011065573770491803,1931.6590547561646
0.011168032786885246,1773.4393000602722
0.011270491803278689,1604.1314363479612
0.011372950819672132,1426.9494652748108
0.011475409836065573,1244.6644306182861
0.011577868852459016,1060.7786893844604
0.01168032786885246,878.1883835792542
0.0117827868852459,700.1873731613158
0.011885245901639344,530.1639318466185
0.011987704918032787,370.7691192626953
0.01209016393442623,224.76257085800168
0.012192622950819671,95.89565992355347
0.012295081967213115,15.038144588470457
0.012397540983606558,1.1561751365661619
0.0125,0.7856011390686034
0.012602459016393442,0.5157351493835449
0.012704918032786885,0.3241539001464844
0.012807377049180328,0.3221869468688965
0.012909836065573771,0.5251765251159668
0.013012295081967213,0.7938623428344727
0.013114754098360656,1.0767102241516113
0.013217213114754099,18.011391162872314
0.01331967213114754,109.30556058883667
0.013422131147540983,241.6590929031372
0.013524590163934426,389.4197702407837
0.01362704918032787,550.2414107322693
0.01372950819672131,721.362018585205
0.013831967213114754,900.051462650299
0.013934426229508197,1082.9639554023743
0.01403688524590164,1266.7977690696714
0.014139344262295081,1448.6268639564512
0.014241803278688524,1624.9838948249815
0.014344262295081968,1793.0140256881712
0.01444672131147541,1949.6444821357725
0.014549180327868852,2092.6895856857295
0.014651639344262295,2219.0690875053406
0.014754098360655738,2326.816427707672
0.01485655737704918,2413.9182329177856
0.014959016393442623,2478.9697051048274
0.015061475409836066,2521.0554242134094
0.015163934426229509,2539.5479321479793
0.01526639344262295,2533.5652470588684
0.015368852459016393,2503.667163848877
0.015471311475409836,2450.406789779663
0.01557377049180328,2374.4749188423157
0.01567622950819672,2277.2971987724304
0.015778688524590165,2160.329174995422
0.015881147540983607,2025.5543231964111
0.015983606557377048,1875.6083607673643
0.016086065573770493,1713.1364464759827
0.016188524590163934,1540.5874371528625
0.016290983606557376,1361.1875295639038
0.01639344262295082,1177.9048562049866
0.016495901639344262,994.1693902015686
0.016598360655737703,812.8532767295837
0.016700819672131148,637.406551837921
0.01680327868852459,470.8661913871765
0.016905737704918034,315.99065065383905
0.017008196721311476,175.49786567687985
0.017110655737704917,57.815837860107415
0.01721311475409836,5.146336555480957
0.017315573770491803,0.9811162948608397
0.017418032786885244,0.6931543350219725
0.01752049180327869,0.43312311172485346
0.01762295081967213,0.2911090850830078
0.017725409836065575,0.3863096237182617
0.017827868852459017,0.6306052207946777
0.017930327868852458,0.8914232254028319
0.018032786885245903,2.3147106170654297
0.018135245901639344,41.64158105850219
0.018237704918032786,154.9624800682068
0.01834016393442623,293.3108925819397
0.018442622950819672,446.20059728622437
0.018545081967213113,611.0737681388855
0.018647540983606558,785.3241920471191
0.01875,965.9573793411255
0.018852459016393444,1149.5740413665771
0.018954918032786885,1333.1198930740356
0.019057377049180327,1513.2526874542236
0.01915983606557377,1686.9704604148862
0.019262295081967213,1851.2110590934751
0.019364754098360654,2003.1786561012268
0.0194672131147541,2140.4361963272095
0.01956967213114754,2260.2850198745728
0.019672131147540982,2360.507583618164
0.019774590163934427,2439.795863628387
0.019877049180327868,2496.726179122925
0.019979508196721313,2530.357539653778
0.020081967213114754,2540.0797963142395
0.020184426229508196,2525.4834294319153
0.02028688524590164,2486.9457006454463
0.02038934426229508,2425.181794166565
0.020491803278688523,2341.4045333862305
0.020594262295081968,2236.873948574066
0.02069672131147541,2113.297748565674
0.020799180327868854,1972.6106286048887
0.020901639344262295,1817.8224205970764
0.021004098360655737,1651.277732849121
0.02110655737704918,1475.9726285934446
0.021209016393442623,1294.746994972229
0.021311475409836064,1110.9706163406372
0.02141393442622951,927.7615070343018
0.02151639344262295,748.1959819793701
0.021618852459016392,575.7075548171997
0.021721311475409837,413.1789922714233
0.021823770491803278,263.2054924964904
0.021926229508196723,128.7878394126892
0.022028688524590164,29.22617197036743
0.022131147540983605,1.7958283424377441
0.02223360655737705,0.8792281150817871
0.02233606557377049,0.5959868431091309
0.022438524590163933,0.3642797470092773
0.022540983606557378,0.30448436737060547
0.02264344262295082,0.4626274108886718
0.022745901639344264,0.7261991500854491
0.022848360655737705,0.9752154350280762
0.022950819672131147,7.9405903816223145
0.02305327868852459,77.40275859832762
0.023155737704918033,203.87431383132935
0.023258196721311474,347.5724458694458
0.02336065573770492,505.05734682083124
0.02346311475409836,673.7165093421935
0.0235655737704918,850.6844758987427
0.023668032786885247,1032.7865839004514
0.023770491803278688,1216.6412472724915
0.023872950819672133,1399.4125127792358
0.023975409836065574,1577.5445222854614
0.024077868852459015,1748.221778869629
0.02418032786885246,1908.2460165023801
0.0242827868852459,2055.1432013511658
0.024385245901639343,2186.311447620392
0.024487704918032788,2299.264132976532
0.02459016393442623,2392.109048366546
0.02469262295081967,2463.3816003799434
0.024795081967213115,2511.811137199402
0.024897540983606557,2536.8008852005005
0.025,2537.6533627510066
0.025102459016393443,2514.2552733421326
0.025204918032786884,2467.2667264938354
0.02530737704918033,2397.4764704704285
0.02540983606557377,2305.9958338737483
0.02551229508196721,2194.2874431610107
0.025614754098360656,2064.143979549408
0.025717213114754098,1918.086290359497
0.025819672131147543,1758.788251876831
0.025922131147540984,1588.7105226516721
0.026024590163934425,1410.930597782135
0.02612704918032787,1228.3021330833435
0.02622950819672131,1044.46359872818
0.026331967213114753,862.1675491333008
0.026434426229508198,684.724760055542
0.02653688524590164,515.4806256294249
0.02663934426229508,357.0767641067505
0.026741803278688525,212.33378648757935
0.026844262295081966,85.95900535583495
0.02694672131147541,11.82335615158081
0.027049180327868853,1.0983467102050781
0.027151639344262294,0.7867813110351562
0.02725409836065574,0.5169153213500977
0.02735655737704918,0.3162860870361328
0.02745901639344262,0.34579038619995117
0.027561475409836066,0.5507469177246094
0.027663934426229508,0.8265137672424315
0.027766393442622953,1.214003562927246
0.027868852459016394,22.842228412628174
0.027971311475409835,120.37006616592406
0.02807377049180328,254.30581569671628
0.02817622950819672,403.34383249282837
0.028278688524590163,565.1697993278502
0.028381147540983608,737.0996117591857
0.02848360655737705,916.275680065155
0.02858606557377049,1099.406111240387
0.028688524590163935,1283.1974387168882
0.028790983606557376,1464.653205871582
0.02889344262295082,1640.334391593933
0.028995901639344263,1807.5356483459473
0.029098360655737704,1963.0221247673035
0.02920081967213115,2104.649841785431
0.02930327868852459,2229.483318328857
0.02940573770491803,2335.3919506072993
0.029508196721311476,2420.4835295677185
0.029610655737704918,2483.506679534912
0.02971311475409836,2523.728120326996
0.029815573770491804,2540.0636672973633
0.029918032786885245,2531.9267749786377
0.03002049180327869,2499.744272232055
0.03012295081967213,2444.313168525696
0.030225409836065573,2366.584289073944
0.030327868852459017,2267.65204668045
0.03043032786885246,2149.041223526001
0.0305327868852459,2012.6935958862302
0.030635245901639345,1861.5017652511597
0.030737704918032786,1697.9259967803955
0.03084016393442623,1524.7444152832031
0.030942622950819672,1344.8716521263123
0.031045081967213114,1161.4091992378235
0.03114754098360656,977.763032913208
0.03125,796.8395233154296
0.03135245901639344,622.1575498580933
0.03145491803278688,456.60145282745356
0.03155737704918033,302.9273271560669
0.03165983606557377,163.78859281539914
0.031762295081967214,49.8661994934082
0.031864754098360655,3.920531272888183
0.031967213114754096,0.9496450424194336
0.03206967213114754,0.6856799125671387
0.032172131147540986,0.4291892051696777
0.03227459016393443,0.3033041954040527
0.03237704918032787,0.4008650779724121
0.03247950819672131,0.6286382675170898
0.03258196721311475,0.8902430534362793
0.0326844262295082,3.1530261039733887
0.03278688524590164,49.85518455505371
0.03288934426229508,167.18040704727173
0.032991803278688524,306.74872398376465
0.033094262295081965,460.6396079063415
0.033196721311475406,626.4498353004456
0.033299180327868855,801.3930201530455
0.033401639344262296,982.4900150299072
0.03350409836065574,1166.1885023117065
0.03360655737704918,1349.561262130737
0.03370901639344262,1529.2149066925047
0.03381147540983607,1702.182877063751
0.03391393442622951,1865.448260307312
0.03401639344262295,2016.253387928009
0.03411885245901639,2152.08842754364
0.034221311475409834,2270.153224468231
0.03432377049180328,2368.675947189331
0.03442622950819672,2445.935118198395
0.034528688524590165,2500.7415175437923
0.034631147540983606,2532.214736938476
0.03473360655737705,2539.6608352661133
0.03483606557377049,2522.7572321891785
0.03493852459016394,2482.097554206848
0.03504098360655738,2418.4626817703247
0.03514344262295082,2332.840812206268
0.03524590163934426,2226.4011025428767
0.0353483606557377,2101.1710882186885
0.03545081967213115,1959.1255903244019
0.03555327868852459,1803.272473812103
0.035655737704918034,1635.8867168426511
0.035758196721311475,1459.9360585212705
0.035860655737704916,1278.2930374145508
0.03596311475409836,1094.46827173233
0.036065573770491806,911.4527106285095
0.03616803278688525,732.3993802070618
0.03627049180327869,560.6650829315186
0.03637295081967213,399.04407262802124
0.03647540983606557,250.36050081253052
0.03657786885245902,117.73474216461182
0.03668032786885246,23.959064483642575
0.0367827868852459,1.4992117881774902
0.036885245901639344,0.8438229560852051
0.036987704918032785,0.5590081214904785
0.037090163934426226,0.34106969833374023
0.037192622950819675,0.3036975860595703
0.037295081967213116,0.488591194152832
0.03739754098360656,0.7391810417175293
0.0375,0.9988188743591307
0.03760245901639344,10.498809814453125
0.03770491803278689,87.40038871765137
0.03780737704918033,216.18390083312988
0.03790983606557377,361.3316774368286
0.03801229508196721,519.8885679244994
0.038114754098360654,689.3459200859069
0.038217213114754095,866.8339490890502
0.03831967213114754,1049.210250377655
0.038422131147540985,1233.0920577049255
0.038524590163934426,1415.589916706085
0.03862704918032787,1593.0704712867737
0.03872950819672131,1762.8822684288023
0.03883196721311476,1921.9517469406126
0.0389344262295082,2067.5995230674744
0.03903688524590164,2197.3425149917603
0.03913934426229508,2308.387649059295
0.03924180327868852,2399.369072914123
0.039344262295081964,2468.5574412345886
0.03944672131147541,2515.014910697937
0.03954918032786885,2537.8901839256287
0.039651639344262295,2536.5593433380127
0.039754098360655736,2510.8858823776245
0.03985655737704918,2461.824953556061
0.039959016393442626,2389.923369884491
0.04006147540983607,2296.644151210785
0.04016393442622951,2183.3212852478027
0.04026639344262295,2051.615667343139
0.04036885245901639,1904.2133688926697
0.04047131147540984,1743.7827587127686
0.04057377049180328,1572.7821350097654
0.04067622950819672,1394.472312927246
0.04077868852459016,1211.6243362426758
0.040881147540983605,1027.7382016181946
0.040983606557377046,845.7371950149536
0.041086065573770494,668.980872631073
0.041188524590163936,500.65884590148926
0.04129098360655738,343.48787069320673
0.04139344262295082,200.12136697769165
0.04149590163934426,76.29221677780151
0.04159836065573771,9.12351608276367
0.04170081967213115,1.0420918464660642
0.04180327868852459,0.7568836212158203
0.04190573770491803,0.48701763153076166
0.042008196721311473,0.30684471130371094
0.042110655737704915,0.3583788871765136
0.04221311475409836,0.5790710449218749
0.042315573770491804,0.8394956588745117
0.042418032786885246,1.4150261878967283
0.04252049180327869,28.459060192108154
0.04262295081967213,131.8716287612915
0.04272540983606558,267.1716570854187
0.04282786885245902,417.4614429473877
0.04293032786885246,580.3326487541199
0.0430327868852459,753.0874013900757
0.04313524590163934,932.7190160751342
0.043237704918032784,1115.9824132919312
0.04334016393442623,1299.6714591979978
0.04344262295081967,1480.7452440261839
0.043545081967213115,1655.8461785316467
0.043647540983606556,1822.0604181289673
0.04375,1976.3911128044126
0.043852459016393446,2116.512143611908
0.04395491803278689,2239.615488052368
0.04405737704918033,2343.6854124069214
0.04415983606557377,2426.9500851631165
0.04426229508196721,2488.0656838417053
0.04436475409836065,2526.0589599609375
0.0444672131147541,2540.0601267814636
0.04456967213114754,2529.7639131546016
0.04467213114754098,2495.5342054367065
0.044774590163934425,2438.0417346954346
0.044877049180327866,2358.3730459213257
0.044979508196721314,2257.5190901756287
0.045081967213114756,2137.2682213783264
0.0451844262295082,1999.5543479919434
0.04528688524590164,1847.2338795661924
0.04538934426229508,1682.6529979705808
0.04549180327868853,1508.7625265121458
0.04559426229508197,1328.372848033905
0.04569672131147541,1144.7428107261658
0.04579918032786885,961.2268567085266
0.04590163934426229,780.7632207870483
0.046004098360655735,606.744110584259
0.04610655737704918,442.1773910522461
0.046209016393442624,289.6834373474121
0.046311475409836066,152.02857255935666
0.04641393442622951,42.31152534484863
0.04651639344262295,2.960658073425293
0.0466188524590164,0.9350895881652831
0.04672131147540984,0.6447672843933105
0.04682377049180328,0.3941774368286133
0.04692622950819672,0.3119587898254394
0.04702868852459016,0.4461050033569336
0.0471311475409836,0.6821393966674805
0.04723360655737705,0.9189605712890624
0.04733606557377049,4.275763034820557
0.047438524590163934,58.18287134170532
0.047540983606557376,178.97897958755493
0.04764344262295082,319.95406150817865
0.047745901639344265,475.24816989898676
0.04784836065573771,641.9832587242125
0.04795081967213115,817.5806522369385
0.04805327868852459,998.9990472793578
0.04815573770491803,1182.6880931854246
0.04825819672131147,1365.8700585365295
0.04836065573770492,1545.0736641883848
0.04846311475409836,1717.2894716262817
0.0485655737704918,1879.52299118042
0.048668032786885244,2029.0476322174072
0.048770491803278686,2163.380706310272
0.048872950819672134,2279.8770546913147
0.048975409836065575,2376.4646887779236
0.04907786885245902,2451.7242550849915
0.04918032786885246,2504.4685006141663
0.0492827868852459,2533.8716983795166
0.04938524590163934,2539.0353441238403
0.04948770491803279,2519.9366211891174
0.04959016393442623,2477.102673053741
0.04969262295081967,2411.4693760871887
0.04979508196721311,2323.8152503967285
0.049897540983606554,2215.7276272773743
0.05,2088.955521583557
0.050102459016393444,1945.637798309326
0.050204918032786885,1788.5529756546018
0.05030737704918033,1620.150303840637
0.05040983606557377,1443.5985445976255
0.050512295081967216,1261.6553664207456
0.05061475409836066,1077.7810335159302
0.0507172131147541,894.9676752090454
0.05081967213114754,716.4532899856567
0.05092213114754098,545.4455852508545
0.05102459016393442,384.9835038185119
0.05112704918032787,237.60087490081784
0.05122950819672131,106.8157911300659
0.051331967213114754,19.177794456481934
0.051434426229508196,1.3001561164855957
0.05153688524590164,0.8304476737976073
0.051639344262295085,0.5507469177246094
0.051741803278688527,0.3312349319458008
0.05184426229508197,0.32179355621337885
0.05194672131147541,0.5118012428283691
0.05204918032786885,0.7612109184265137
