{'sampling_frequency': 9760, 'signal_level': 10, 'signal_level_units': 'mVrms', 'signal_frequency': 105, 'signal_frequency_units': 'Hz'}
Time (s),Voltage (mV)
0.0,1036.5540862083435
0.00010245901639344262,1030.7629823684692
0.00020491803278688525,1025.5135774612427
0.00030737704918032784,1020.7897424697876
0.0004098360655737705,1016.6512727737427
0.0005122950819672131,1013.024604320526
0.0006147540983606557,1010.0505709648131
0.0007172131147540983,1007.6977014541626
0.000819672131147541,1005.8963656425475
0.0009221311475409836,1004.7791361808776
0.0010245901639344263,1004.2787432670592
0.001127049180327869,1004.3884992599487
0.0012295081967213114,1005.2000641822814
0.001331967213114754,1006.5792918205261
0.0014344262295081967,1008.6202025413513
0.0015368852459016393,1011.3066673278807
0.001639344262295082,1014.5600080490111
0.0017418032786885246,1018.4105157852173
0.0018442622950819673,1022.8664517402648
0.00194672131147541,1027.8345823287964
0.0020491803278688526,1033.3963394165037
0.002151639344262295,1039.4073486328123
0.002254098360655738,1045.831024646759
0.0023565573770491805,1052.7960062026978
0.0024590163934426227,1060.1760149002075
0.0025614754098360654,1067.9254174232483
0.002663934426229508,1076.0194301605225
0.0027663934426229507,1084.417140483856
0.0028688524590163933,1093.0426239967346
0.002971311475409836,1101.9643306732175
0.0030737704918032786,1111.0469341278076
0.0031762295081967213,1120.2947616577148
0.003278688524590164,1129.630708694458
0.0033811475409836066,1139.0221238136292
0.0034836065573770492,1148.4198331832883
0.003586065573770492,1157.8301310539246
0.0036885245901639345,1167.2054171562195
0.003790983606557377,1176.4327883720398
0.00389344262295082,1185.4858875274658
0.003995901639344262,1194.354486465454
0.004098360655737705,1202.9866576194763
0.004200819672131147,1211.3780736923215
0.00430327868852459,1219.4390416145325
0.004405737704918033,1227.1872639656067
0.004508196721311476,1234.5503568649292
0.004610655737704918,1241.4874076843262
0.004713114754098361,1248.0090379714966
0.004815573770491803,1254.03892993927
0.0049180327868852455,1259.5074534416196
0.0050204918032786885,1264.470076560974
0.005122950819672131,1268.9358472824094
0.005225409836065574,1272.7977633476257
0.005327868852459016,1276.0794281959534
0.005430327868852459,1278.726553916931
0.005532786885245901,1280.7863473892212
0.0056352459016393444,1282.2702169418335
0.005737704918032787,1283.1097126007078
0.00584016393442623,1283.2977533340452
0.005942622950819672,1282.82253742218
0.006045081967213115,1281.6636085510254
0.006147540983606557,1279.924428462982
0.00625,1277.614438533783
0.0063524590163934426,1274.7112154960632
0.006454918032786886,1271.1482763290405
0.006557377049180328,1266.9936776161192
0.00665983606557377,1262.3028874397278
0.006762295081967213,1257.063317298889
0.006864754098360655,1251.3265013694763
0.0069672131147540985,1245.1219439506528
0.007069672131147541,1238.4185671806333
0.007172131147540984,1231.2899351119995
0.007274590163934426,1223.8131523132322
0.007377049180327869,1215.8745288848875
0.007479508196721311,1207.6345682144165
0.007581967213114754,1199.133789539337
0.007684426229508197,1190.3592109680174
0.00778688524590164,1181.419014930725
0.007889344262295083,1172.3084807395933
0.007991803278688524,1162.9752874374387
0.008094262295081967,1153.5606622695923
0.00819672131147541,1144.1369891166687
0.008299180327868852,1134.7168564796448
0.008401639344262295,1125.3093123435974
0.008504098360655738,1116.0197854042053
0.00860655737704918,1106.8455219268799
0.008709016393442622,1097.8793621063232
0.008811475409836065,1089.0807867050169
0.008913934426229508,1080.5249333381653
0.009016393442622951,1072.2873330116272
0.009118852459016393,1064.3774271011353
0.009221311475409836,1056.8243265151978
0.009323770491803279,1049.659502506256
0.009426229508196722,1042.9502248764038
0.009528688524590163,1036.7079019546509
0.009631147540983606,1030.9612512588499
0.00973360655737705,1025.7094860076902
0.009836065573770491,1021.0281372070311
0.009938524590163934,1016.8790459632872
0.010040983606557377,1013.2535576820374
0.01014344262295082,1010.2630019187926
0.010245901639344262,1007.8660726547241
0.010348360655737705,1006.072998046875
0.010450819672131148,1004.9309849739075
0.01055327868852459,1004.4793725013732
0.010655737704918032,1004.6866893768309
0.010758196721311475,1005.4427862167358
0.010860655737704918,1006.824767589569
0.010963114754098361,1008.9073777198792
0.011065573770491803,1011.622953414917
0.011168032786885246,1014.9002909660338
0.011270491803278689,1018.7685012817383
0.011372950819672132,1023.1740832328795
0.011475409836065573,1028.1367063522337
0.011577868852459016,1033.6599111557005
0.01168032786885246,1039.6831154823303
0.0117827868852459,1046.1827158927917
0.011885245901639344,1053.1233072280884
0.011987704918032787,1060.4663372039795
0.01209016393442623,1068.193709850311
0.012192622950819671,1076.2755274772644
0.012295081967213115,1084.671664237976
0.012397540983606558,1093.3014750480652
0.0125,1102.1602392196655
0.012602459016393442,1111.257791519165
0.012704918032786885,1120.4391360282898
0.012807377049180328,1129.7542333602905
0.012909836065573771,1139.1350269317627
0.013012295081967213,1148.5209345817566
0.013114754098360656,1157.8922867774963
0.013217213114754099,1167.2231197357178
0.01331967213114754,1176.4670133590698
0.013422131147540983,1185.499656200409
0.013524590163934426,1194.4111347198484
0.01362704918032787,1203.0912995338438
0.01372950819672131,1211.4579319953918
0.013831967213114754,1219.4921493530273
0.013934426229508197,1227.2136211395264
0.01403688524590164,1234.5507502555845
0.014139344262295081,1241.535401344299
0.014241803278688524,1248.0153322219846
0.014344262295081968,1253.9677262306213
0.01444672131147541,1259.4401836395264
0.014549180327868852,1264.4209027290342
0.014651639344262295,1268.8398599624634
0.014754098360655738,1272.655749320984
0.01485655737704918,1275.9460687637327
0.014959016393442623,1278.6203384399412
0.015061475409836066,1280.692720413208
0.015163934426229509,1282.1262359619138
0.01526639344262295,1282.9385876655576
0.015368852459016393,1283.1049919128416
0.015471311475409836,1282.6569199562073
0.01557377049180328,1281.5451979637144
0.01567622950819672,1279.847717285156
0.015778688524590165,1277.5306463241575
0.015881147540983607,1274.5660543441772
0.015983606557377048,1271.0365533828733
0.016086065573770493,1266.9059514999387
0.016188524590163934,1262.1872305870054
0.016290983606557376,1256.96142911911
0.01639344262295082,1251.234447956085
0.016495901639344262,1245.0145483016968
0.016598360655737703,1238.3552312850952
0.016700819672131148,1231.2490224838257
0.01680327868852459,1223.742341995239
0.016905737704918034,1215.8285021781921
0.017008196721311476,1207.5763463974
0.017110655737704917,1199.0732073783875
0.01721311475409836,1190.3186917304993
0.017315573770491803,1181.3603997230528
0.017418032786885244,1172.1877098083496
0.01752049180327869,1162.8576636314392
0.01762295081967213,1153.463888168335
0.017725409836065575,1144.0240859985352
0.017827868852459017,1134.5980525016782
0.017930327868852458,1125.185787677765
0.018032786885245903,1115.837252140045
0.018135245901639344,1106.668496131897
0.018237704918032786,1097.6582765579224
0.01834016393442623,1088.8644218444822
0.018442622950819672,1080.3601026535034
0.018545081967213113,1072.0957517623901
0.018647540983606558,1064.2098426818848
0.01875,1056.7055225372314
0.018852459016393444,1049.502146244049
0.018954918032786885,1042.6543951034546
0.019057377049180327,1036.385715007782
0.01915983606557377,1030.643391609192
0.019262295081967213,1025.3668427467346
0.019364754098360654,1020.6430077552795
0.0194672131147541,1016.4596915245056
0.01956967213114754,1012.8401041030884
0.019672131147540982,1009.8766922950743
0.019774590163934427,1007.4994325637816
0.019877049180327868,1005.6835412979126
0.019979508196721313,1004.5458555221558
0.020081967213114754,1004.0836215019226
0.020184426229508196,1004.241371154785
0.02028688524590164,1005.0399541854857
0.02038934426229508,1006.4408183097839
0.020491803278688523,1008.4935307502747
0.020594262295081968,1011.1587524414062
0.02069672131147541,1014.4604802131652
0.020799180327868854,1018.3534741401672
0.020901639344262295,1022.8192448616027
0.021004098360655737,1027.7732133865356
0.02110655737704918,1033.2913041114807
0.021209016393442623,1039.3208026885984
0.021311475409836064,1045.7979798316953
0.02141393442622951,1052.739357948303
0.02151639344262295,1060.1059913635254
0.021618852459016392,1067.840051651001
0.021721311475409837,1075.906527042389
0.021823770491803278,1084.290075302124
0.021926229508196723,1092.9379820823667
0.022028688524590164,1101.8502473831174
0.022131147540983605,1110.9533071517942
0.02223360655737705,1120.174777507782
0.02233606557377049,1129.55242395401
0.022438524590163933,1138.9764904975889
0.022540983606557378,1148.3997702598572
0.02264344262295082,1157.808494567871
0.022745901639344264,1167.1125769615173
0.022848360655737705,1176.3316869735718
0.022950819672131147,1185.333251953125
0.02305327868852459,1194.2038178443909
0.023155737704918033,1202.9252886772156
0.023258196721311474,1211.3434553146362
0.02336065573770492,1219.4087505340576
0.02346311475409836,1227.0952105522156
0.0235655737704918,1234.4752192497253
0.023668032786885247,1241.4268255233765
0.023770491803278688,1247.9150176048277
0.023872950819672133,1253.982675075531
0.023975409836065574,1259.5212221145628
0.024077868852459015,1264.4736170768738
0.02418032786885246,1268.9177513122559
0.0242827868852459,1272.754883766174
0.024385245901639343,1276.051104068756
0.024487704918032788,1278.7796616554258
0.02459016393442623,1280.8508634567258
0.02469262295081967,1282.2961807250977
0.024795081967213115,1283.0998778343198
0.024897540983606557,1283.3016872406004
0.025,1282.8681707382202
0.025102459016393443,1281.7529082298279
0.025204918032786884,1280.0302505493164
0.02530737704918033,1277.7257680892944
0.02540983606557377,1274.7875332832334
0.02551229508196721,1271.2387561798096
0.025614754098360656,1267.0955657958984
0.025717213114754098,1262.4787330627441
0.025819672131147543,1257.2946310043333
0.025922131147540984,1251.5904664993284
0.026024590163934425,1245.3678131103513
0.02612704918032787,1238.665223121643
0.02622950819672131,1231.5051198005676
0.026331967213114753,1223.9488720893858
0.026434426229508198,1216.04368686676
0.02653688524590164,1207.8367710113525
0.02663934426229508,1199.3403196334837
0.026741803278688525,1190.5869841575623
0.026844262295081966,1181.60902261734
0.02694672131147541,1172.4508881568909
0.027049180327868853,1163.1298899650574
0.027151639344262294,1153.7345409393308
0.02725409836065574,1144.365155696869
0.02735655737704918,1135.0315690040588
0.02745901639344262,1125.6464481353757
0.027561475409836066,1116.3655757904053
0.027663934426229508,1107.162594795227
0.027766393442622953,1098.1508016586304
0.027868852459016394,1089.3439650535583
0.027971311475409835,1080.8278441429138
0.02807377049180328,1072.5863099098206
0.02817622950819672,1064.6626353263855
0.028278688524590163,1057.1028470993042
0.028381147540983608,1049.9065518379211
0.02848360655737705,1043.167769908905
0.02858606557377049,1036.9014501571653
0.028688524590163935,1031.1075925827026
0.028790983606557376,1025.8613348007202
0.02889344262295082,1021.1142897605896
0.028995901639344263,1016.951823234558
0.029098360655737704,1013.2952570915221
0.02920081967213115,1010.2732300758362
0.02930327868852459,1007.8810214996337
0.02940573770491803,1006.0977816581726
0.029508196721311476,1004.9974679946898
0.029610655737704918,1004.5037627220153
0.02971311475409836,1004.6339750289917
0.029815573770491804,1005.3731560707091
0.029918032786885245,1006.7740201950073
0.03002049180327869,1008.7976217269896
0.03012295081967213,1011.4652037620544
0.030225409836065573,1014.712643623352
0.030327868852459017,1018.5415148735046
0.03043032786885246,1022.9514241218567
0.0305327868852459,1027.893590927124
0.030635245901639345,1033.375096321106
0.030737704918032786,1039.3935799598692
0.03084016393442623,1045.9045886993408
0.030942622950819672,1052.8491139411926
0.031045081967213114,1060.240924358368
0.03114754098360656,1067.962396144867
0.03125,1076.0371327400208
0.03135245901639344,1084.4175338745117
0.03145491803278688,1093.1004524230957
0.03155737704918033,1102.0013093948364
0.03165983606557377,1111.077618598938
0.031762295081967214,1120.290434360504
0.031864754098360655,1129.6220541000366
0.031967213114754096,1139.0158295631406
0.03206967213114754,1148.4371423721313
0.032172131147540986,1157.8234434127808
0.03227459016393443,1167.1110033988953
0.03237704918032787,1176.3411283493042
0.03247950819672131,1185.410749912262
0.03258196721311475,1194.3092465400696
0.0326844262295082,1202.9992461204529
0.03278688524590164,1211.376106739044
0.03288934426229508,1219.426453113556
0.032991803278688524,1227.162480354309
0.033094262295081965,1234.5432758331299
0.033196721311475406,1241.4878010749817
0.033299180327868855,1247.969305515289
0.033401639344262296,1253.9976239204407
0.03350409836065574,1259.4877839088438
0.03360655737704918,1264.450407028198
0.03370901639344262,1268.870151042938
0.03381147540983607,1272.7202653884885
0.03391393442622951,1276.015305519104
0.03401639344262295,1278.7033438682556
0.03411885245901639,1280.7234048843384
0.034221311475409834,1282.1754097938535
0.03432377049180328,1282.9610109329224
0.03442622950819672,1283.144724369049
0.034528688524590165,1282.6714754104614
0.034631147540983606,1281.565260887146
0.03473360655737705,1279.8308014869688
0.03483606557377049,1277.5054693222046
0.03493852459016394,1274.5762825012205
0.03504098360655738,1271.0294723510742
0.03514344262295082,1266.884708404541
0.03524590163934426,1262.2017860412598
0.0353483606557377,1256.9897532463071
0.03545081967213115,1251.2698531150816
0.03555327868852459,1245.0432658195493
0.035655737704918034,1238.2977962493894
0.035758196721311475,1231.1935544013977
0.035860655737704916,1223.7002491950989
0.03596311475409836,1215.7883763313293
0.036065573770491806,1207.5783133506775
0.03616803278688525,1199.080681800842
0.03627049180327869,1190.27738571167
0.03637295081967213,1181.3167333602905
0.03647540983606557,1172.19557762146
0.03657786885245902,1162.878906726837
0.03668032786885246,1153.5457134246824
0.0367827868852459,1144.1476106643674
0.036885245901639344,1134.7609162330627
0.036987704918032785,1125.3565192222595
0.037090163934426226,1116.0335540771484
0.037192622950819675,1106.8427681922913
0.037295081967213116,1097.8262543678284
0.03739754098360656,1089.0166640281677
0.0375,1080.460810661316
0.03760245901639344,1072.236979007721
0.03770491803278689,1064.302682876587
0.03780737704918033,1056.7731857299805
0.03790983606557377,1049.6248841285706
0.03801229508196721,1042.9128527641296
0.038114754098360654,1036.6673827171323
0.038217213114754095,1030.8924078941343
0.03831967213114754,1025.6107449531555
0.038422131147540985,1020.8334088325499
0.038524590163934426,1016.6532397270203
0.03862704918032787,1013.0493879318236
0.03872950819672131,1010.0729942321777
0.03883196721311476,1007.718551158905
0.0389344262295082,1005.9274435043335
0.03903688524590164,1004.7563195228577
0.03913934426229508,1004.2641878128052
0.03924180327868852,1004.3947935104369
0.039344262295081964,1005.2091121673583
0.03944672131147541,1006.6418409347533
0.03954918032786885,1008.7417602539061
0.039651639344262295,1011.368429660797
0.039754098360655736,1014.6044611930847
0.03985655737704918,1018.4577226638794
0.039959016393442626,1022.8668451309204
0.04006147540983607,1027.8593659400938
0.04016393442622951,1033.3813905715942
0.04026639344262295,1039.3495202064514
0.04036885245901639,1045.885705947876
0.04047131147540984,1052.7912855148315
0.04057377049180328,1060.1358890533447
0.04067622950819672,1067.8746700286865
0.04077868852459016,1075.9041666984556
0.040881147540983605,1084.249949455261
0.040983606557377046,1092.9226398468018
0.041086065573770494,1101.8109083175657
0.041188524590163936,1110.956060886383
0.04129098360655738,1120.183825492859
0.04139344262295082,1129.4910550117493
0.04149590163934426,1138.882863521576
0.04159836065573771,1148.3246326446533
0.04170081967213115,1157.6826095581055
0.04180327868852459,1167.0429468154905
0.04190573770491803,1176.2868404388428
0.042008196721311473,1185.3391528129578
0.042110655737704915,1194.2286014556885
0.04221311475409836,1202.8753280639648
0.042315573770491804,1211.227798461914
0.042418032786885246,1219.295847415924
0.04252049180327869,1227.027940750122
0.04262295081967213,1234.3949675559998
0.04272540983606558,1241.3768649101255
0.04282786885245902,1247.8827595710752
0.04293032786885246,1253.9016366004942
0.0430327868852459,1259.4425439834592
0.04313524590163934,1264.422082901001
0.043237704918032784,1268.8827395439146
0.04334016393442623,1272.7670788764954
0.04344262295081967,1276.0884761810303
0.043545081967213115,1278.7710070610046
0.043647540983606556,1280.8123111724851
0.04375,1282.2210431098938
0.043852459016393446,1283.0522775650024
0.04395491803278689,1283.3351254463194
0.04405737704918033,1282.8768253326414
0.04415983606557377,1281.7375659942627
0.04426229508196721,1280.0570011138914
0.04436475409836065,1277.7753353118894
0.0444672131147541,1274.8009085655212
0.04456967213114754,1271.2773084640503
0.04467213114754098,1267.1915531158447
0.044774590163934425,1262.5420689582825
0.044877049180327866,1257.304859161377
0.044979508196721314,1251.5684366226196
0.045081967213114756,1245.306050777435
0.0451844262295082,1238.6117219924927
0.04528688524590164,1231.4756155014038
0.04538934426229508,1223.9555597305298
0.04549180327868853,1216.0519480705261
0.04559426229508197,1207.8285098075867
0.04569672131147541,1199.2891788482664
0.04579918032786885,1190.4953241348267
0.04590163934426229,1181.5043807029724
0.046004098360655735,1172.3899126052856
0.04610655737704918,1163.1338238716125
0.046209016393442624,1153.7841081619263
0.046311475409836066,1144.3757772445676
0.04641393442622951,1134.97177362442
0.04651639344262295,1125.5764245986938
0.0466188524590164,1116.299486160278
0.04672131147540984,1107.1417450904846
0.04682377049180328,1098.1240510940552
0.04692622950819672,1089.3258690834045
0.04702868852459016,1080.79833984375
0.0471311475409836,1072.541856765747
0.04723360655737705,1064.60520029068
0.04733606557377049,1057.0174813270567
0.047438524590163934,1049.856197834015
0.047540983606557376,1043.1355118751526
0.04764344262295082,1036.8286728858945
0.047745901639344265,1031.0442566871643
0.04784836065573771,1025.8035063743591
0.04795081967213115,1021.0607886314391
0.04805327868852459,1016.8967485427855
0.04815573770491803,1013.2429361343383
0.04825819672131147,1010.2126479148865
0.04836065573770492,1007.8043103218077
0.04846311475409836,1006.0560822486877
0.0485655737704918,1004.8936128616333
0.048668032786885244,1004.3782711029053
0.048770491803278686,1004.5273661613463
0.048872950819672134,1005.2940845489502
0.048975409836065575,1006.6426277160645
0.04907786885245902,1008.7000608444214
0.04918032786885246,1011.3825917243958
0.0492827868852459,1014.6363258361816
0.04938524590163934,1018.4691309928893
0.04948770491803279,1022.8149175643921
0.04959016393442623,1027.7181386947632
0.04969262295081967,1033.2503914833069
0.04979508196721311,1039.2735958099363
0.049897540983606554,1045.7842111587522
0.05,1052.7480125427246
0.050102459016393444,1060.1193666458128
0.050204918032786885,1067.8337574005125
0.05030737704918033,1075.910460948944
0.05040983606557377,1084.325087070465
0.050512295081967216,1092.970633506775
0.05061475409836066,1101.83687210083
0.0507172131147541,1110.9131813049316
0.05081967213114754,1120.1173424720762
0.05092213114754098,1129.4615507125854
0.05102459016393442,1138.8344764709473
0.05112704918032787,1148.2219576835632
0.05122950819672131,1157.5862288475037
0.051331967213114754,1166.948926448822
0.051434426229508196,1176.1900663375854
0.05153688524590164,1185.2290034294128
0.051639344262295085,1194.1349744796753
0.051741803278688527,1202.7903556823728
0.05184426229508197,1211.1711502075195
