{'sampling_frequency': 9760, 'signal_level': 100, 'signal_level_units': 'mVrms', 'signal_frequency': 205, 'signal_frequency_units': 'Hz'}
Time (s),Voltage (mV)
0.0,2209.551000595093
0.00010245901639344262,2081.5200448036194
0.00020491803278688525,1937.3254537582395
0.00030737704918032784,1779.5931100845337
0.0004098360655737705,1610.6880784034727
0.0005122950819672131,1433.7783336639402
0.0006147540983606557,1251.5495538711548
0.0007172131147540983,1067.6079511642456
0.000819672131147541,884.932279586792
0.0009221311475409836,706.8069577217102
0.0010245901639344263,536.3751769065857
0.001127049180327869,376.46266222000116
0.0012295081967213114,229.8746824264526
0.001331967213114754,100.29770135879517
0.0014344262295081967,16.671109199523926
0.0015368852459016393,1.2136101722717285
0.001639344262295082,0.8217930793762207
0.0017418032786885246,0.5354046821594238
0.0018442622950819673,0.33477544784545893
0.00194672131147541,0.32808780670166016
0.0020491803278688526,0.5216360092163086
0.002151639344262295,0.7773399353027343
0.002254098360655738,1.0495662689208984
0.0023565573770491805,16.29817485809326
0.0024590163934426227,104.73082065582274
0.0025614754098360654,236.2928509712219
0.002663934426229508,383.7120652198791
0.0027663934426229507,544.1226124763489
0.0028688524590163933,714.9407029151917
0.002971311475409836,893.3665752410889
0.0030737704918032786,1076.121711730957
0.0031762295081967213,1260.0102066993713
0.003278688524590164,1442.0238018035886
0.0033811475409836066,1618.6074256896973
0.0034836065573770492,1786.9845271110535
0.003586065573770492,1944.0752506256104
0.0036885245901639345,2087.659692764282
0.003790983606557377,2214.7276282310486
0.00389344262295082,2323.1075406074524
0.003995901639344262,2410.8694553375244
0.004098360655737705,2476.7619967460632
0.004200819672131147,2519.788706302643
0.00430327868852459,2539.025115966797
0.004405737704918033,2534.053838253021
0.004508196721311476,2505.059373378753
0.004610655737704918,2452.507495880127
0.004713114754098361,2377.4080395698543
0.004815573770491803,2281.0564398765564
0.0049180327868852455,2164.8759841918945
0.0050204918032786885,2030.7824850082397
0.005122950819672131,1881.417167186737
0.005225409836065574,1719.2025303840637
0.005327868852459016,1547.0197677612302
0.005430327868852459,1367.8743839263916
0.005532786885245901,1184.6259355545044
0.0056352459016393444,1000.839328765869
0.005737704918032787,819.3465828895569
0.00584016393442623,643.6748385429381
0.005942622950819672,476.8170118331909
0.006045081967213115,321.45602703094477
0.006147540983606557,180.35309314727783
0.00625,61.41064167022705
0.0063524590163934426,5.8182477951049805
0.006454918032786886,0.9870171546936034
0.006557377049180328,0.7124304771423339
0.00665983606557377,0.4468917846679687
0.006762295081967213,0.294649600982666
0.006864754098360655,0.38670301437377924
0.0069672131147540985,0.612509250640869
0.007069672131147541,0.853264331817627
0.007172131147540984,2.071201801300049
0.007274590163934426,38.97911310195923
0.007377049180327869,150.49238204956052
0.007479508196721311,288.2074356079101
0.007581967213114754,440.5157089233398
0.007684426229508197,604.9415946006774
0.00778688524590164,778.8426876068115
0.007889344262295083,959.2972755432129
0.007991803278688524,1142.8486347198486
0.008094262295081967,1326.3988137245178
0.00819672131147541,1506.7007660865784
0.008299180327868852,1680.689978599548
0.008401639344262295,1845.3526854515073
0.008504098360655738,1997.828936576843
0.00860655737704918,2135.6037855148315
0.008709016393442622,2256.05331659317
0.008811475409836065,2357.129144668579
0.008913934426229508,2437.218761444092
0.009016393442622951,2494.824922084808
0.009118852459016393,2529.4016003608704
0.009221311475409836,2540.022361278534
0.009323770491803279,2526.1868119239807
0.009426229508196722,2488.393771648407
0.009528688524590163,2427.711296081543
0.009631147540983606,2344.8317527770996
0.00973360655737705,2240.9644246101375
0.009836065573770491,2118.021583557129
0.009938524590163934,1978.0213236808777
0.010040983606557377,1823.752784729004
0.01014344262295082,1657.598340511322
0.010245901639344262,1482.55877494812
0.010348360655737705,1301.521575450897
0.010450819672131148,1117.7778482437134
0.01055327868852459,934.5152378082275
0.010655737704918032,754.7821283340453
0.010758196721311475,581.9333553314209
0.010860655737704918,418.9138412475586
0.010963114754098361,268.43680143356323
0.011065573770491803,133.3283543586731
0.011168032786885246,31.64198398590088
0.011270491803278689,1.9752144813537598
0.011372950819672132,0.9087324142456055
0.011475409836065573,0.6203770637512206
0.011577868852459016,0.36506652832031244
0.01168032786885246,0.29425621032714844
0.0117827868852459,0.4512190818786621
0.011885245901639344,0.7120370864868164
0.011987704918032787,0.9642004966735839
0.01209016393442623,7.046020030975341
0.012192622950819671,73.39764833450317
0.012295081967213115,198.798394203186
0.012397540983606558,341.949713230133
0.0125,499.00188446044916
0.012602459016393442,667.2763109207152
0.012704918032786885,844.0082430839539
0.012807377049180328,1025.9722709655762
0.012909836065573771,1209.891057014465
0.013012295081967213,1392.7791595458982
0.013114754098360656,1571.048069000244
0.013217213114754099,1742.0148611068723
0.01331967213114754,1902.5198221206665
0.013422131147540983,2049.945330619812
0.013524590163934426,2181.822073459625
0.01362704918032787,2295.4285740852356
0.01372950819672131,2389.070105552673
0.013831967213114754,2461.0767245292664
0.013934426229508197,2510.358345508575
0.01403688524590164,2536.323702335357
0.014139344262295081,2538.0420327186584
0.014241803278688524,2515.531826019287
0.014344262295081968,2469.3438291549683
0.01444672131147541,2400.25577545166
0.014549180327868852,2309.481275081634
0.014651639344262295,2198.578941822052
0.014754098360655738,2069.0975546836853
0.01485655737704918,1923.615789413452
0.014959016393442623,1764.7725105285642
0.015061475409836066,1594.9567794799805
0.015163934426229509,1417.4329519271848
0.01526639344262295,1234.9846601486206
0.015368852459016393,1051.100492477417
0.015471311475409836,868.643546104431
0.01557377049180328,691.0548090934752
0.01567622950819672,521.5754270553589
0.015778688524590165,362.9221558570861
0.015881147540983607,217.72559881210327
0.015983606557377048,90.3283953666687
0.016086065573770493,13.208091259002686
0.016188524590163934,1.118803024291992
0.016290983606557376,0.7741928100585938
0.01639344262295082,0.523996353149414
0.016495901639344262,0.32572746276855463
0.016598360655737703,0.3379225730895996
0.016700819672131148,0.5397319793701171
0.01680327868852459,0.7970094680786132
0.016905737704918034,1.152241230010986
0.017008196721311476,20.788335800170895
0.017110655737704917,115.84961414337158
0.01721311475409836,249.16065931320188
0.017315573770491803,397.73290157318115
0.017418032786885244,559.0919137001036
0.01752049180327869,730.670428276062
0.01762295081967213,909.6619963645934
0.017725409836065575,1092.7149295806885
0.017827868852459017,1276.5381217002866
0.017930327868852458,1458.1237077713013
0.018032786885245903,1634.1042637825012
0.018135245901639344,1801.6513109207153
0.018237704918032786,1957.6204776763914
0.01834016393442623,2099.744653701782
0.018442622950819672,2225.16428232193
0.018545081967213113,2331.723189353943
0.018647540983606558,2417.524838447571
0.01875,2481.507074832916
0.018852459016393444,2522.3894119262695
0.018954918032786885,2539.567601680755
0.019057377049180327,2532.334721088409
0.01915983606557377,2501.082980632782
0.019262295081967213,2446.565330028534
0.019364754098360654,2369.7888493537903
0.0194672131147541,2271.666204929352
0.01956967213114754,2153.615176677704
0.019672131147540982,2017.8556680679321
0.019774590163934427,1867.2649383544922
0.019877049180327868,1704.0790200233457
0.019979508196721313,1531.1818599700925
0.020081967213114754,1351.503038406372
0.020184426229508196,1168.0838584899902
0.02028688524590164,984.3979597091675
0.02038934426229508,803.3835768699645
0.020491803278688523,628.4093141555785
0.020594262295081968,462.4440908432006
0.02069672131147541,308.23220014572144
0.020799180327868854,168.5588479042053
0.020901639344262295,53.095543384551995
0.021004098360655737,4.378831386566161
0.02110655737704918,0.9752154350280762
0.021209016393442623,0.6884336471557617
0.021311475409836064,0.43509006500244135
0.02141393442622951,0.2985835075378418
0.02151639344262295,0.3985047340393066
0.021618852459016392,0.6455540657043456
0.021721311475409837,0.896143913269043
0.021823770491803278,2.781665325164795
0.021926229508196723,46.47399187088013
0.022028688524590164,162.32635974884033
0.022131147540983605,301.37422084808344
0.02223360655737705,454.93072271347046
0.02233606557377049,620.3711628913879
0.022438524590163933,795.0543165206909
0.022540983606557378,975.8255839347839
0.02264344262295082,1159.4945669174194
0.022745901639344264,1342.940890789032
0.022848360655737705,1522.8250622749329
0.022950819672131147,1696.1392164230347
0.02305327868852459,1859.725213050842
0.023155737704918033,2010.8544945716856
0.023258196721311474,2147.320532798767
0.02336065573770492,2266.3455963134766
0.02346311475409836,2365.6181216239925
0.0235655737704918,2443.6743021011353
0.023668032786885247,2499.2324709892273
0.023770491803278688,2531.5550208091736
0.023872950819672133,2539.899623394012
0.023975409836065574,2524.0180492401123
0.024077868852459015,2484.1502666473384
0.02418032786885246,2421.3462352752686
0.0242827868852459,2336.3526105880737
0.024385245901639343,2230.6225776672363
0.024487704918032788,2105.950784683227
0.02459016393442623,1964.5929336547852
0.02469262295081967,1809.2295885086057
0.024795081967213115,1642.1754598617554
0.024897540983606557,1466.4415597915647
0.025,1284.97359752655
0.025102459016393443,1101.17951631546
0.025204918032786884,918.042004108429
0.02530737704918033,738.7782096862793
0.02540983606557377,566.7075634002686
0.02551229508196721,404.68136072158813
0.025614754098360656,255.43051958084106
0.025717213114754098,122.03804254531859
0.025819672131147543,25.946867465972897
0.025922131147540984,1.5881180763244627
0.026024590163934425,0.8670330047607422
0.02612704918032787,0.5739569664001465
0.02622950819672131,0.33910274505615234
0.026331967213114753,0.29425621032714844
0.026434426229508198,0.46734809875488276
0.02653688524590164,0.7336735725402832
0.02663934426229508,0.992131233215332
0.026741803278688525,9.421706199645996
0.026844262295081966,83.43068361282347
0.02694672131147541,211.1575484275818
0.027049180327868853,355.72113990783686
0.027151639344262294,513.8944745063782
0.02725409836065574,682.9308986663818
0.02735655737704918,860.1817131042479
0.02745901639344262,1042.473042011261
0.027561475409836066,1226.341474056244
0.027663934426229508,1408.9246988296509
0.027766393442622953,1586.703050136566
0.027868852459016394,1756.9247603416443
0.027971311475409835,1916.408085823059
0.02807377049180328,2062.588119506836
0.02817622950819672,2192.897987365722
0.028278688524590163,2304.870736598968
0.028381147540983608,2396.5240716934204
0.02848360655737705,2466.4551615715027
0.02858606557377049,2513.8347387313843
0.028688524590163935,2537.594354152679
0.028790983606557376,2537.0278716087337
0.02889344262295082,2512.167942523956
0.028995901639344263,2464.0456438064575
0.029098360655737704,2393.1200623512264
0.02920081967213115,2300.5823850631714
0.02930327868852459,2187.9278898239136
0.02940573770491803,2056.7867875099178
0.029508196721311476,1909.90651845932
0.029610655737704918,1750.0616669654844
0.02971311475409836,1579.469382762909
0.029815573770491804,1401.298427581787
0.029918032786885245,1218.5535192489622
0.03002049180327869,1034.6957087516785
0.03012295081967213,852.5290846824646
0.030225409836065573,675.5017161369324
0.030327868852459017,506.74735307693476
0.03043032786885246,348.9847183227539
0.0305327868852459,205.01790046691892
0.030635245901639345,80.13957738876343
0.030737704918032786,10.144758224487305
0.03084016393442623,1.0664820671081543
0.030942622950819672,0.7734060287475585
0.031045081967213114,0.4850506782531738
0.03114754098360656,0.29425621032714844
0.03125,0.3379225730895996
0.03135245901639344,0.5597949028015137
0.03145491803278688,0.8292675018310547
0.03155737704918033,1.3143181800842285
0.03165983606557377,26.038134098052975
0.031762295081967214,127.0911455154419
0.031864754098360655,261.78613901138306
0.031967213114754096,411.6534233093261
0.03206967213114754,574.0867853164673
0.032172131147540986,746.5106964111328
0.03227459016393443,925.9432554244995
0.03237704918032787,1109.2129468917847
0.03247950819672131,1293.035352230072
0.03258196721311475,1474.2460370063782
0.0326844262295082,1649.6089696884155
0.03278688524590164,1816.0966157913208
0.03288934426229508,1970.9863185882568
0.032991803278688524,2111.7226123809814
0.033094262295081965,2235.659551620483
0.033196721311475406,2340.557563304901
0.033299180327868855,2424.5720386505127
0.033401639344262296,2486.5137577056885
0.03350409836065574,2525.2729654312134
0.03360655737704918,2540.04203081131
0.03370901639344262,2530.7556509971614
0.03381147540983607,2497.4885702133174
0.03391393442622951,2440.7868146896362
0.03401639344262295,2361.70585155487
0.03411885245901639,2261.552917957306
0.034221311475409834,2141.999924182892
0.03432377049180328,2004.910361766815
0.03442622950819672,1853.1335592269897
0.034528688524590165,1688.9610171318052
0.034631147540983606,1515.340805053711
0.03473360655737705,1335.1568698883057
0.03483606557377049,1151.6157388687134
0.03493852459016394,968.0112719535828
0.03504098360655738,787.346613407135
0.03514344262295082,612.9809260368347
0.03524590163934426,447.9232549667358
0.0353483606557377,294.90058422088623
0.03545081967213115,156.57420158386228
0.03555327868852459,45.28044462203979
0.035655737704918034,3.3284783363342285
0.035758196721311475,0.9555459022521973
0.035860655737704916,0.6624698638916016
0.03596311475409836,0.41660070419311523
0.036065573770491806,0.31313896179199213
0.03616803278688525,0.4193544387817382
0.03627049180327869,0.6624698638916016
0.03637295081967213,0.9091258049011229
0.03647540983606557,3.7041664123535156
0.03657786885245902,54.44920063018799
0.03668032786885246,174.11549091339108
0.0367827868852459,314.5024538040161
0.036885245901639344,469.3225264549255
0.036987704918032785,635.6001019477844
0.037090163934426226,810.9638214111328
0.037192622950819675,992.2193527221679
0.037295081967213116,1175.88951587677
0.03739754098360656,1359.1552734374998
0.0375,1538.5138750076292
0.03760245901639344,1711.0679984092712
0.03770491803278689,1873.9026188850403
0.03780737704918033,2023.974859714508
0.03790983606557377,2158.8571071624756
0.03801229508196721,2275.932919979095
0.038114754098360654,2373.319137096405
0.038217213114754095,2449.39341545105
0.03831967213114754,2502.948045730591
0.038422131147540985,2533.284366130829
0.038524590163934426,2539.3374681472774
0.03862704918032787,2521.140396595001
0.03872950819672131,2479.2682886123653
0.03883196721311476,2414.4532442092896
0.0389344262295082,2327.6488423347473
0.03903688524590164,2220.4412341117854
0.03913934426229508,2094.1687345504756
0.03924180327868852,1951.3301610946653
0.039344262295081964,1794.6875095367432
0.03944672131147541,1626.7073392868042
0.03954918032786885,1450.3935813903809
0.039651639344262295,1268.527114391327
0.039754098360655736,1084.6272110939026
0.03985655737704918,901.6777396202087
0.039959016393442626,722.9245662689209
0.04006147540983607,551.6603708267212
0.04016393442622951,390.714418888092
0.04026639344262295,242.72596836090088
0.04036885245901639,111.16983890533447
0.04047131147540984,20.97440958023071
0.04057377049180328,1.3571977615356445
0.04067622950819672,0.8414626121520996
0.04077868852459016,0.5578279495239258
0.040881147540983605,0.34106969833374023
0.040983606557377046,0.3221869468688965
0.041086065573770494,0.4980325698852539
0.041188524590163936,0.7344603538513182
0.04129098360655738,0.9960651397705078
0.04139344262295082,12.36072778701782
0.04149590163934426,93.49046945571898
0.04159836065573771,223.22677373886108
0.04170081967213115,369.07124519348145
0.04180327868852459,528.3075213432312
0.04190573770491803,698.2794284820556
0.042008196721311473,876.1506199836731
0.042110655737704915,1058.720076084137
0.04221311475409836,1242.5967693328857
0.042315573770491804,1424.9191761016843
0.042418032786885246,1602.065348625183
0.04252049180327869,1771.4573979377747
0.04262295081967213,1929.7400951385498
0.04272540983606558,2074.6156454086304
0.04282786885245902,2203.4483313560486
0.04293032786885246,2313.640594482422
0.0430327868852459,2403.4524679183955
0.04313524590163934,2471.5460300445557
0.043237704918032784,2516.7989373207092
0.04334016393442623,2538.352024555206
0.04344262295081967,2535.5085968971252
0.043545081967213115,2508.7155461311336
0.043647540983606556,2458.5409283637996
0.04375,2385.5504393577576
0.043852459016393446,2291.037940979004
0.04395491803278689,2176.54709815979
0.04405737704918033,2043.9638257026672
0.04415983606557377,1895.9848165512083
0.04426229508196721,1734.988510608673
0.04436475409836065,1563.594889640808
0.0444672131147541,1384.961700439453
0.04456967213114754,1201.9339442253113
0.04467213114754098,1018.0737733840941
0.044774590163934425,836.271035671234
0.044877049180327866,659.9073171615601
0.044979508196721314,491.981828212738
0.045081967213114756,335.42729616165155
0.0451844262295082,192.9526090621948
0.04528688524590164,70.78710794448851
0.04538934426229508,7.7950358390808105
0.04549180327868853,1.024782657623291
0.04559426229508197,0.7486224174499512
0.04569672131147541,0.4748225212097168
0.04579918032786885,0.2840280532836914
0.04590163934426229,0.3623127937316894
0.046004098360655735,0.6097555160522461
0.04610655737704918,0.8615255355834961
0.046209016393442624,1.6007065773010252
0.046311475409836066,31.950402259826657
0.04641393442622951,138.41607570648193
0.04651639344262295,274.7644901275635
0.0466188524590164,425.883150100708
0.04672131147540984,589.2728447914122
0.04682377049180328,762.5008463859557
0.04692622950819672,942.4428462982178
0.04702868852459016,1125.816786289215
0.0471311475409836,1309.472393989563
0.04723360655737705,1490.298342704773
0.04733606557377049,1664.9165868759155
0.047438524590163934,1830.596601963043
0.047540983606557376,1984.349799156189
0.04764344262295082,2123.7977385520935
0.047745901639344265,2245.9939241409297
0.04784836065573771,2348.9072799682617
0.04795081967213115,2430.8678627014156
0.04805327868852459,2490.684878826141
0.04815573770491803,2527.5101780891414
0.04825819672131147,2540.2957677841187
0.04836065573770492,2528.7123799324036
0.04846311475409836,2493.214380741119
0.0485655737704918,2434.512233734131
0.048668032786885244,2353.6141991615295
0.048770491803278686,2251.719725131988
0.048872950819672134,2130.4558753967285
0.048975409836065575,1991.894245147705
0.04907786885245902,1838.9195680618284
0.04918032786885246,1673.8253116607664
0.0492827868852459,1499.5394825935361
0.04938524590163934,1318.9216375350952
0.04948770491803279,1135.1873517036438
0.04959016393442623,951.693820953369
0.04969262295081967,771.4304208755492
0.04979508196721311,597.8562355041504
0.049897540983606554,433.90045166015625
0.05,282.0740818977356
0.050102459016393444,145.23117542266846
0.050204918032786885,38.24740648269653
0.05030737704918033,2.5472044944763184
0.05040983606557377,0.9327292442321776
0.050512295081967216,0.6522417068481445
0.05061475409836066,0.390636920928955
0.0507172131147541,0.29150247573852534
0.05081967213114754,0.4252552986145019
0.05092213114754098,0.6683707237243652
0.05102459016393442,0.949251651763916
0.05112704918032787,5.11643886566162
0.05122950819672131,63.4484052658081
0.051331967213114754,186.1756682395935
0.051434426229508196,327.8730154037475
0.05153688524590164,483.6915135383606
0.051639344262295085,651.0269165039062
0.051741803278688527,827.0531058311462
0.05184426229508197,1008.6705565452576
0.05194672131147541,1192.506730556488
0.05204918032786885,1375.6163120269775
0.05215163934426229,1554.5095324516296
