{'sampling_frequency': 9760, 'signal_level': 100, 'signal_level_units': 'mVrms', 'signal_frequency': 205, 'signal_frequency_units': 'Hz'}
Time (s),Voltage (mV)
0.0,2528.250539302826
0.00010245901639344262,2540.4279470443726
0.00020491803278688525,2528.080987930298
0.00030737704918032784,2491.74427986145
0.0004098360655737705,2432.5000405311584
0.0005122950819672131,2350.9741544723506
0.0006147540983606557,2248.5206723213196
0.0007172131147540983,2126.689553260803
0.000819672131147541,1987.544524669647
0.0009221311475409836,1834.1115474700925
0.0010245901639344263,1668.6750411987302
0.001127049180327869,1494.1728472709653
0.0012295081967213114,1313.4562611579895
0.001331967213114754,1129.7223687171936
0.0014344262295081967,946.2787985801696
0.0015368852459016393,766.2085533142089
0.001639344262295082,592.7913308143616
0.0017418032786885246,429.0039181709289
0.0018442622950819673,277.6370286941528
0.00194672131147541,141.35431051254272
0.0020491803278688526,36.05189323425293
0.002151639344262295,2.3371338844299316
0.002254098360655738,0.8937835693359374
0.0023565573770491805,0.6129026412963867
0.0024590163934426227,0.3815889358520508
0.0025614754098360654,0.29150247573852534
0.002663934426229508,0.4449248313903808
0.0027663934426229507,0.7092833518981934
0.0028688524590163933,0.9567260742187499
0.002971311475409836,5.64122200012207
0.0030737704918032786,66.44014120101927
0.0031762295081967213,189.8503303527832
0.003278688524590164,332.0366621017456
0.0033811475409836066,488.4200692176819
0.0034836065573770492,656.0886740684508
0.003586065573770492,832.2128176689148
0.0036885245901639345,1013.9600872993468
0.003790983606557377,1197.7931141853333
0.00389344262295082,1380.8826327323914
0.003995901639344262,1559.6708178520203
0.004098360655737705,1731.1879634857178
0.004200819672131147,1892.4407601356506
0.00430327868852459,2040.8316493034363
0.004405737704918033,2173.7984776496887
0.004508196721311476,2288.6886119842525
0.004610655737704918,2383.680260181427
0.004713114754098361,2457.164061069488
0.004815573770491803,2508.0802202224727
0.0049180327868852455,2535.550689697265
0.0050204918032786885,2538.759970664978
0.005122950819672131,2517.7316665649414
0.005225409836065574,2473.1605052948
0.005327868852459016,2405.601954460144
0.005430327868852459,2316.206288337707
0.005532786885245901,2206.360602378845
0.0056352459016393444,2078.05073261261
0.005737704918032787,1933.5445761680603
0.00584016393442623,1775.4400849342344
0.005942622950819672,1606.2581062316895
0.006045081967213115,1429.173696041107
0.006147540983606557,1246.8882679939268
0.00625,1063.0324244499204
0.0063524590163934426,880.4979801177977
0.006454918032786886,702.4914622306824
0.006557377049180328,532.2512626647949
0.00665983606557377,372.69043922424316
0.006762295081967213,226.50214433670044
0.006864754098360655,97.54672050476074
0.0069672131147540985,15.645146369934082
0.007069672131147541,1.1774182319641113
0.007172131147540984,0.808417797088623
0.007274590163934426,0.5228161811828613
0.007377049180327869,0.3233671188354492
0.007479508196721311,0.3241539001464844
0.007581967213114754,0.5283236503601074
0.007684426229508197,0.7966160774230957
0.00778688524590164,1.0837912559509277
0.007889344262295083,17.420125007629395
0.007991803278688524,107.76150226593018
0.008094262295081967,239.82156515121457
0.00819672131147541,387.459111213684
0.008299180327868852,548.1025457382201
0.008401639344262295,719.1857814788818
0.008504098360655738,897.7827787399292
0.00860655737704918,1080.6598663330078
0.008709016393442622,1264.493680000305
0.008811475409836065,1446.4101076126096
0.008913934426229508,1622.8115916252134
0.009016393442622951,1791.070282459259
0.009118852459016393,1947.9776859283447
0.009221311475409836,2091.193127632141
0.009323770491803279,2217.848002910614
0.009426229508196722,2325.5784273147583
0.009528688524590163,2412.694001197815
0.009631147540983606,2478.143191337585
0.00973360655737705,2520.734024047851
0.009836065573770491,2539.5656347274776
0.009938524590163934,2534.0062379837036
0.010040983606557377,2504.2718052864075
0.01014344262295082,2451.142430305481
0.010245901639344262,2375.5897879600525
0.010348360655737705,2278.6044359207153
0.010450819672131148,2161.918079853058
0.01055327868852459,2027.3108124732971
0.010655737704918032,1877.5410890579224
0.010758196721311475,1715.1163816452026
0.010860655737704918,1542.6846027374265
0.010963114754098361,1363.3421301841736
0.011065573770491803,1180.0932884216309
0.011168032786885246,996.3865399360657
0.011270491803278689,815.0259733200072
0.011372950819672132,639.5206332206725
0.011475409836065573,472.89726734161377
0.011577868852459016,317.82581806182856
0.01168032786885246,177.12414264678955
0.0117827868852459,59.00230407714843
0.011885245901639344,5.365455150604248
0.011987704918032787,0.9972453117370605
0.01209016393442623,0.7037758827209473
0.012192622950819671,0.44531822204589844
0.012295081967213115,0.29071569442749023
0.012397540983606558,0.3863096237182617
0.0125,0.6223440170288085
0.012602459016393442,0.878441333770752
0.012704918032786885,2.248227596282959
0.012807377049180328,41.04677438735962
0.012909836065573771,153.71975898742676
0.013012295081967213,291.75778627395624
0.013114754098360656,444.37762498855585
0.013217213114754099,609.1729044914246
0.01331967213114754,783.328127861023
0.013422131147540983,963.9038801193237
0.013524590163934426,1147.4595665931702
0.01362704918032787,1330.9892892837522
0.01372950819672131,1511.2353801727295
0.013831967213114754,1684.9503993988035
0.013934426229508197,1849.3810057640073
0.01403688524590164,2001.4921903610227
0.014139344262295081,2138.989698886871
0.014241803278688524,2259.0875387191772
0.014344262295081968,2359.792006015777
0.01444672131147541,2439.3293023109436
0.014549180327868852,2496.469688415527
0.014651639344262295,2530.257618427276
0.014754098360655738,2540.0884509086604
0.01485655737704918,2525.5916118621826
0.014959016393442623,2487.340664863586
0.015061475409836066,2426.0389924049373
0.015163934426229509,2342.57093667984
0.01526639344262295,2238.2409811019897
0.015368852459016393,2114.7934198379517
0.015471311475409836,1974.398589134216
0.01557377049180328,1819.8326468467712
0.01567622950819672,1653.3957481384275
0.015778688524590165,1478.1783699989317
0.015881147540983607,1296.986961364746
0.015983606557377048,1113.1732106208801
0.016086065573770493,929.9141407012938
0.016188524590163934,750.3257989883423
0.016290983606557376,577.6674270629883
0.01639344262295082,414.94216918945307
0.016495901639344262,264.828622341156
0.016598360655737703,130.30003309249878
0.016700819672131148,29.979515075683594
0.01680327868852459,1.8552303314208984
0.016905737704918034,0.8792281150817871
0.017008196721311476,0.6011009216308594
0.017110655737704917,0.3603458404541015
0.01721311475409836,0.3076314926147461
0.017315573770491803,0.46498775482177734
0.017418032786885244,0.7159709930419922
0.01752049180327869,0.9744286537170409
0.01762295081967213,7.603847980499268
0.017725409836065575,75.93973875045776
0.017827868852459017,201.96558237075803
0.017930327868852458,345.69479227066034
0.018032786885245903,502.9684424400329
0.018135245901639344,671.398651599884
0.018237704918032786,848.3040690422058
0.01834016393442623,1030.3794264793396
0.018442622950819672,1214.1640663146973
0.018545081967213113,1396.9109416007993
0.018647540983606558,1575.0752091407776
0.01875,1745.7800030708313
0.018852459016393444,1906.042242050171
0.018954918032786885,2053.201031684875
0.019057377049180327,2184.7252964973445
0.01915983606557377,2297.8963136672974
0.019262295081967213,2390.95995426178
0.019364754098360654,2462.4008774757385
0.0194672131147541,2511.1742377281184
0.01956967213114754,2536.5443944931026
0.019672131147540982,2537.6049757003784
0.019774590163934427,2514.444887638092
0.019877049180327868,2467.753744125366
0.019979508196721313,2398.158609867096
0.020081967213114754,2306.947839260101
0.020184426229508196,2195.53724527359
0.02028688524590164,2065.6719088554382
0.02038934426229508,1919.8718905448914
0.020491803278688523,1760.6761336326597
0.020594262295081968,1590.6821966171262
0.02069672131147541,1413.006520271301
0.020799180327868854,1230.4299831390379
0.020901639344262295,1046.5572237968443
0.021004098360655737,864.21160697937
0.02110655737704918,686.8077635765076
0.021209016393442623,517.4684286117554
0.021311475409836064,358.9969038963318
0.02141393442622951,214.11466598510742
0.02151639344262295,87.336266040802
0.021618852459016392,12.233269214630125
0.021721311475409837,1.099133491516113
0.021823770491803278,0.7710456848144531
0.021926229508196723,0.5114078521728516
0.022028688524590164,0.3190398216247558
0.022131147540983605,0.34146308898925776
0.02223360655737705,0.5499601364135742
0.02233606557377049,0.811171531677246
0.022438524590163933,1.181352138519287
0.022540983606557378,22.221457958221432
0.02264344262295082,119.070303440094
0.022745901639344264,252.76569128036496
0.022848360655737705,401.5291213989258
0.022950819672131147,563.1658673286438
0.02305327868852459,735.0291967391968
0.023155737704918033,914.1175389289855
0.023258196721311474,1097.2204327583313
0.02336065573770492,1281.0664415359497
0.02346311475409836,1462.638258934021
0.0235655737704918,1638.509452342987
0.023668032786885247,1805.81613779068
0.023770491803278688,1961.4269256591797
0.023872950819672133,2103.2135725021362
0.023975409836065574,2228.256332874298
0.024077868852459015,2334.4796776771545
0.02418032786885246,2419.691634178161
0.0242827868852459,2483.0790638923645
0.024385245901639343,2523.4138011932373
0.024487704918032788,2540.044391155243
0.02459016393442623,2532.142353057861
0.02469262295081967,2500.3276705741882
0.024795081967213115,2445.265960693359
0.024897540983606557,2367.8576946258545
0.025,2268.9789533615112
0.025102459016393443,2150.6376028060913
0.025204918032786884,2014.575183391571
0.02530737704918033,1863.6237144470213
0.02540983606557377,1700.1663565635681
0.02551229508196721,1527.0630598068235
0.025614754098360656,1347.2882509231567
0.025717213114754098,1163.8435006141663
0.025819672131147543,980.19300699234
0.025922131147540984,799.230945110321
0.026024590163934425,624.3337869644164
0.02612704918032787,458.5837483406067
0.02622950819672131,304.54927682876587
0.026331967213114753,165.34248590469358
0.026434426229508198,51.018047332763665
0.02653688524590164,4.091656208038329
0.02663934426229508,0.9701013565063475
0.026741803278688525,0.6817460060119629
0.026844262295081966,0.4209280014038086
0.02694672131147541,0.29425621032714844
0.027049180327868853,0.41266679763793945
0.027151639344262294,0.647127628326416
0.02725409836065574,0.8977174758911132
0.02735655737704918,3.0165195465087886
0.02745901639344262,48.678553104400635
0.027561475409836066,165.57694673538205
0.027663934426229508,305.0020694732666
0.027766393442622953,458.8968873023986
0.027868852459016394,624.6201753616333
0.027971311475409835,799.4197726249695
0.02807377049180328,980.3605914115905
0.02817622950819672,1164.014232158661
0.028278688524590163,1347.4015474319456
0.028381147540983608,1527.1374106407166
0.02848360655737705,1700.1789450645447
0.02858606557377049,1863.548970222473
0.028688524590163935,2014.487850666046
0.028790983606557376,2150.51132440567
0.02889344262295082,2268.859362602234
0.028995901639344263,2367.648017406463
0.029098360655737704,2445.210099220276
0.02920081967213115,2500.3233432769775
0.02930327868852459,2532.1073412895203
0.02940573770491803,2539.8000955581665
0.029508196721311476,2523.1848478317256
0.029610655737704918,2482.8646659851074
0.02971311475409836,2419.449698925018
0.029815573770491804,2333.904933929443
0.029918032786885245,2227.885365486145
0.03002049180327869,2102.815854549408
0.03012295081967213,1961.053991317749
0.030225409836065573,1805.3680658340454
0.030327868852459017,1637.9846692085264
0.03043032786885246,1462.132751941681
0.0305327868852459,1280.5798172950745
0.030635245901639345,1096.7743277549744
0.030737704918032786,913.71431350708
0.03084016393442623,734.5795512199401
0.030942622950819672,562.735104560852
0.031045081967213114,401.03344917297363
0.03114754098360656,252.24562883377072
0.03125,119.18871402740477
0.03135245901639344,24.490141868591305
0.03145491803278688,1.5212416648864744
0.03155737704918033,0.8548378944396973
0.03165983606557377,0.5857586860656738
0.031762295081967214,0.34224987030029297
0.031864754098360655,0.2993702888488769
0.031967213114754096,0.47560930252075195
0.03206967213114754,0.737607479095459
0.032172131147540986,0.9889841079711913
0.03227459016393443,10.144758224487305
0.03237704918032787,86.01683378219604
0.03247950819672131,214.27910327911377
0.03258196721311475,359.26204919815063
0.0326844262295082,517.6879405975342
0.03278688524590164,686.9666934013367
0.03288934426229508,864.445674419403
0.032991803278688524,1046.827483177185
0.033094262295081965,1230.6864738464355
0.033196721311475406,1413.1902337074278
0.033299180327868855,1590.811228752136
0.033401639344262296,1760.8000516891477
0.03350409836065574,1919.9423074722288
0.03360655737704918,2065.7061338424683
0.03370901639344262,2195.458173751831
0.03381147540983607,2306.8113327026367
0.03391393442622951,2398.0055809020996
0.03401639344262295,2467.525577545166
0.03411885245901639,2514.3304109573364
0.034221311475409834,2537.4212622642513
0.03432377049180328,2536.2005710601807
0.03442622950819672,2510.960626602173
0.034528688524590165,2462.3351812362666
0.034631147540983606,2390.8521652221675
0.03473360655737705,2297.6425766944885
0.03483606557377049,2184.439694881439
0.03493852459016394,2052.9716849327087
0.03504098360655738,1905.7865381240845
0.03514344262295082,1745.5227255821226
0.03524590163934426,1574.6814250946045
0.0353483606557377,1396.4274644851685
0.03545081967213115,1213.566505908966
0.03555327868852459,1029.7555088996885
0.035655737704918034,847.6805448532104
0.035758196721311475,670.8581328392028
0.035860655737704916,502.42753028869623
0.03596311475409836,345.071268081665
0.036065573770491806,201.55606269836423
0.03616803278688525,77.28710174560547
0.03627049180327869,9.384334087371826
0.03637295081967213,1.0338306427001953
0.03647540983606557,0.7486224174499512
0.03657786885245902,0.47128200531005854
0.03668032786885246,0.2934694290161132
0.0367827868852459,0.3383159637451172
0.036885245901639344,0.5684494972229004
0.036987704918032785,0.8300542831420898
0.037090163934426226,1.383554935455322
0.037192622950819675,27.367401123046875
0.037295081967213116,129.90546226501465
0.03739754098360656,265.1995897293091
0.0375,415.2907133102417
0.03760245901639344,578.1025171279906
0.03770491803278689,750.7514476776123
0.03780737704918033,930.3346753120421
0.03790983606557377,1113.5544061660767
0.03801229508196721,1297.303247451782
0.038114754098360654,1478.4356474876404
0.038217213114754095,1653.5708069801328
0.03831967213114754,1819.9156522750854
0.038422131147540985,1974.596071243286
0.038524590163934426,2115.0593519210815
0.03862704918032787,2238.4884238243103
0.03872950819672131,2342.6905274391174
0.03883196721311476,2425.926876068115
0.0389344262295082,2487.216746807098
0.03903688524590164,2525.546371936798
0.03913934426229508,2540.0200009346004
0.03924180327868852,2530.1675319671626
0.039344262295081964,2496.234440803528
0.03944672131147541,2438.9925599098206
0.03954918032786885,2359.5937371253967
0.039651639344262295,2258.9954853057857
0.039754098360655736,2139.0585422515865
0.03985655737704918,2001.598012447357
0.039959016393442626,1849.4313597679138
0.04006147540983607,1684.9433183670044
0.04016393442622951,1511.069369316101
0.04026639344262295,1330.8158040046692
0.04036885245901639,1147.2514629364011
0.04047131147540984,963.675320148468
0.04057377049180328,783.0944538116454
0.04067622950819672,608.9073657989502
0.04077868852459016,444.1876173019409
0.040881147540983605,291.5669918060302
0.040983606557377046,153.8594126701355
0.041086065573770494,43.51097345352173
0.041188524590163936,3.0944108963012695
0.04129098360655738,0.9464979171752929
0.04139344262295082,0.6601095199584961
0.04149590163934426,0.39693117141723633
0.04159836065573771,0.29622316360473633
0.04170081967213115,0.43076276779174805
0.04180327868852459,0.6711244583129882
0.04190573770491803,0.9213209152221679
0.042008196721311473,4.14358377456665
0.042110655737704915,57.31898546218872
0.04221311475409836,177.79369354248044
0.042315573770491804,318.45366954803467
0.042418032786885246,473.4645366668701
0.04252049180327869,640.0615453720092
0.04262295081967213,815.6113386154175
0.04272540983606558,997.0301270484923
0.04282786885245902,1180.7502508163452
0.04293032786885246,1363.9365434646606
0.0430327868852459,1543.207812309265
0.04313524590163934,1715.5974984169004
0.043237704918032784,1877.9348731040955
0.04334016393442623,2027.667224407196
0.04344262295081967,2162.270951271057
0.043545081967213115,2278.8152933120728
0.043647540983606556,2375.757765769958
0.04375,2451.2868046760555
0.043852459016393446,2504.310357570648
0.04395491803278689,2534.055018424988
0.04405737704918033,2539.540457725525
0.04415983606557377,2520.5259203910828
0.04426229508196721,2478.1435847282405
0.04436475409836065,2412.821853160858
0.0444672131147541,2325.4769325256348
0.04456967213114754,2217.664682865143
0.04467213114754098,2090.920114517212
0.044774590163934425,1947.7113604545593
0.044877049180327866,1790.765404701233
0.044979508196721314,1622.5271701812742
0.045081967213114756,1446.0973620414732
0.0451844262295082,1264.1825079917908
0.04528688524590164,1080.3030610084534
0.04538934426229508,897.4413156509398
0.04549180327868853,718.8470721244812
0.04559426229508197,547.8000283241272
0.04569672131147541,387.10663318634033
0.04579918032786885,239.48324918746945
0.04590163934426229,108.42279195785521
0.046004098360655735,19.836723804473877
0.04610655737704918,1.3103842735290527
0.046209016393442624,0.828874111175537
0.046311475409836066,0.546419620513916
0.04641393442622951,0.33713579177856445
0.04651639344262295,0.31510591506958
0.0466188524590164,0.5082607269287108
0.04672131147540984,0.7580637931823729
0.04682377049180328,1.0188817977905273
0.04692622950819672,13.339877128601074
0.04702868852459016,96.46017551422119
0.0471311475409836,226.70120000839233
0.04723360655737705,372.9547977447509
0.04733606557377049,532.5950860977172
0.047438524590163934,702.7625083923339
0.047540983606557376,880.7729601860046
0.04764344262295082,1063.3506774902344
0.047745901639344265,1247.2462534904478
0.04784836065573771,1429.4545769691467
0.04795081967213115,1606.5051555633545
0.04805327868852459,1775.6300926208494
0.04815573770491803,1933.6806893348692
0.04825819672131147,2078.2076954841614
0.04836065573770492,2206.4735054969788
0.04846311475409836,2316.1697030067444
0.0485655737704918,2405.459940433502
0.048668032786885244,2472.9138493537903
0.048770491803278686,2517.5113677978516
0.048872950819672134,2538.611268997192
0.048975409836065575,2535.3280305862427
0.04907786885245902,2507.9090952873225
0.04918032786885246,2456.926453113556
0.0492827868852459,2383.4878921508785
0.04938524590163934,2288.5210275650024
0.04948770491803279,2173.5384464263916
0.04959016393442623,2040.5676841735838
0.04969262295081967,1892.172861099243
0.04979508196721311,1730.7733297348022
0.049897540983606554,1559.1511487960813
0.05,1380.3696513175962
0.050102459016393444,1197.2797393798828
0.050204918032786885,1013.4557604789734
0.05030737704918033,831.7289471626282
0.05040983606557377,655.4848194122313
0.050512295081967216,487.88899183273315
0.05061475409836066,331.64091110229487
0.0507172131147541,189.432156085968
0.05081967213114754,67.9940342903137
0.05092213114754098,7.160496711730957
0.05102459016393442,1.017308235168457
0.05112704918032787,0.7336735725402832
0.05122950819672131,0.4583001136779785
0.051331967213114754,0.2899289131164551
0.051434426229508196,0.36309957504272455
0.05153688524590164,0.5877256393432617
0.051639344262295085,0.8536577224731445
0.051741803278688527,1.691579818725586
0.05184426229508197,33.50272178649902
0.05194672131147541,141.2532091140747
0.05204918032786885,277.94662714004517
