{'sampling_frequency': 9760, 'signal_level': 100, 'signal_level_units': 'mVrms', 'signal_frequency': 205, 'signal_frequency_units': 'Hz'}
Time (s),Voltage (mV)
0.0,0.81864595413208
0.00010245901639344262,0.5365848541259766
0.00020491803278688525,0.31785964965820307
0.00030737704918032784,0.30920505523681635
0.0004098360655737705,0.5161285400390624
0.0005122950819672131,0.7722258567810059
0.0006147540983606557,1.0487794876098633
0.0007172131147540983,15.498018264770506
0.000819672131147541,102.82995700836182
0.0009221311475409836,234.11661386489868
0.0010245901639344263,381.1030983924866
0.001127049180327869,541.3212776184082
0.0012295081967213114,711.9890928268431
0.001331967213114754,890.3850674629211
0.0014344262295081967,1073.0827689170837
0.0015368852459016393,1256.9216966629026
0.001639344262295082,1438.9750242233274
0.0017418032786885246,1615.6758785247803
0.0018442622950819673,1784.2894077301023
0.00194672131147541,1941.6157722473145
0.0020491803278688526,2085.4291677474976
0.002151639344262295,2212.777590751648
0.002254098360655738,2321.405339241028
0.0023565573770491805,2409.494161605835
0.0024590163934426227,2475.6616830825806
0.0025614754098360654,2519.079029560089
0.002663934426229508,2538.6997818946834
0.0027663934426229507,2534.007024765014
0.0028688524590163933,2505.324125289917
0.002971311475409836,2453.2478570938106
0.0030737704918032786,2378.621256351471
0.0031762295081967213,2282.4525833129883
0.003278688524590164,2166.5687441825867
0.0033811475409836066,2032.7620267868042
0.0034836065573770492,1883.701193332672
0.003586065573770492,1721.735179424286
0.0036885245901639345,1549.7207880020142
0.003790983606557377,1370.6997156143188
0.00389344262295082,1187.5205039978027
0.003995901639344262,1003.7354707717896
0.004098360655737705,822.190797328949
0.004200819672131147,646.3239312171936
0.00430327868852459,479.325270652771
0.004405737704918033,323.7734913825989
0.004508196721311476,182.40501880645752
0.004610655737704918,62.792623043060296
0.004713114754098361,6.073558330535889
0.004815573770491803,1.0019659996032715
0.0049180327868852455,0.7317066192626953
0.0050204918032786885,0.45436620712280273
0.005122950819672131,0.297403335571289
0.005225409836065574,0.3800153732299804
0.005327868852459016,0.6093621253967285
0.005430327868852459,0.8603453636169432
0.005532786885245901,1.9826889038085938
0.0056352459016393444,37.75724172592163
0.005737704918032787,148.37790727615354
0.00584016393442623,285.8522057533264
0.005942622950819672,437.9181504249572
0.006045081967213115,602.2067427635193
0.006147540983606557,776.0834455490112
0.00625,956.4408659934998
0.0063524590163934426,1139.937150478363
0.006454918032786886,1323.5605001449585
0.006557377049180328,1503.9623737335203
0.00665983606557377,1678.060162067413
0.006762295081967213,1842.7983999252317
0.006864754098360655,1995.4426288604736
0.0069672131147540985,2133.590412139892
0.007069672131147541,2254.3947815895076
0.007172131147540984,2355.8663606643677
0.007274590163934426,2436.2380385398865
0.007377049180327869,2494.3087935447693
0.007479508196721311,2529.11639213562
0.007581967213114754,2540.0337696075435
0.007684426229508197,2526.6124606132507
0.00778688524590164,2489.296209812164
0.007889344262295083,2428.9610981941223
0.007991803278688524,2346.6071248054504
0.008094262295081967,2243.0505752563477
0.00819672131147541,2120.3256726264954
0.008299180327868852,1980.5299758911133
0.008401639344262295,1826.4970779418945
0.008504098360655738,1660.5255603790283
0.00860655737704918,1485.6382369995115
0.008709016393442622,1304.6663403511047
0.008811475409836065,1120.9564447402954
0.008913934426229508,937.6367926597595
0.009016393442622951,757.815957069397
0.009118852459016393,584.8326444625854
0.009221311475409836,421.6581344604492
0.009323770491803279,270.96590995788574
0.009426229508196722,135.59900522232056
0.009528688524590163,32.85716772079467
0.009631147540983606,2.0664811134338374
0.00973360655737705,0.9079456329345703
0.009836065573770491,0.6144762039184569
0.009938524590163934,0.38080215454101557
0.010040983606557377,0.3017306327819824
0.01014344262295082,0.46302080154418945
0.010245901639344262,0.7088899612426757
0.010348360655737705,0.9732484817504883
0.010450819672131148,6.689608097076416
0.01055327868852459,71.70056104660034
0.010655737704918032,196.7543363571167
0.010758196721311475,339.78370428085327
0.010860655737704918,496.59000635147095
0.010963114754098361,664.6504282951354
0.011065573770491803,841.1608815193175
0.011168032786885246,1023.0533123016356
0.011270491803278689,1206.9040417671204
0.011372950819672132,1389.8428916931152
0.011475409836065573,1568.2892203330994
0.011577868852459016,1739.305579662323
0.01168032786885246,1899.9293446540833
0.0117827868852459,2047.6455688476562
0.011885245901639344,2179.9054741859436
0.011987704918032787,2293.8392758369446
0.01209016393442623,2387.679862976074
0.012192622950819671,2459.9677562713623
0.012295081967213115,2509.6777796745296
0.012397540983606558,2536.080193519592
0.0125,2538.2922291755676
0.012602459016393442,2516.087687015533
0.012704918032786885,2470.2690839767456
0.012807377049180328,2401.560652256012
0.012909836065573771,2311.090636253357
0.013012295081967213,2200.456202030182
0.013114754098360656,2071.324145793915
0.013217213114754099,1926.0260939598081
0.01331967213114754,1767.327582836151
0.013422131147540983,1597.6282954216003
0.013524590163934426,1420.2932953834534
0.01362704918032787,1237.882375717163
0.01372950819672131,1054.0033221244812
0.013831967213114754,871.5526700019835
0.013934426229508197,693.8758134841918
0.01403688524590164,524.1607904434203
0.014139344262295081,365.23096561431885
0.014241803278688524,219.83850002288818
0.014344262295081968,91.99637174606323
0.01444672131147541,13.699042797088623
0.014549180327868852,1.1278510093688965
0.014651639344262295,0.7769465446472168
0.014754098360655738,0.528717041015625
0.01485655737704918,0.3387093544006347
0.014959016393442623,0.34579038619995117
0.015061475409836066,0.541698932647705
0.015163934426229509,0.7962226867675781
0.01526639344262295,1.1223435401916504
0.015368852459016393,19.998013973236084
0.015471311475409836,113.95425796508789
0.01557377049180328,246.84162139892575
0.01567622950819672,395.1144933700561
0.015778688524590165,556.3661098480225
0.015881147540983607,727.9088258743286
0.015983606557377048,906.8232893943787
0.016086065573770493,1089.7963643074036
0.016188524590163934,1273.609721660614
0.016290983606557376,1455.2688717842102
0.01639344262295082,1631.3540697097776
0.016495901639344262,1799.0340828895569
0.016598360655737703,1955.2451848983762
0.016700819672131148,2097.6191639900208
0.01680327868852459,2223.408579826355
0.016905737704918034,2330.317997932434
0.017008196721311476,2416.603517532348
0.017110655737704917,2481.0381531715393
0.01721311475409836,2522.2654938697815
0.017315573770491803,2539.731252193451
0.017418032786885244,2532.7949881553645
0.01752049180327869,2501.9830584526057
0.01762295081967213,2447.93039560318
0.017725409836065575,2371.264064311981
0.017827868852459017,2273.2519626617427
0.017930327868852458,2155.628156661987
0.018032786885245903,2020.293116569519
0.018135245901639344,1869.872725009918
0.018237704918032786,1706.8988442420957
0.01834016393442623,1534.0595126152036
0.018442622950819672,1354.439306259155
0.018545081967213113,1171.0523843765259
0.018647540983606558,987.3409152030944
0.01875,806.1856985092163
0.018852459016393444,631.0591936111449
0.018954918032786885,464.90396261215204
0.019057377049180327,310.438334941864
0.01915983606557377,170.51085233688354
0.019262295081967213,54.394519329071045
0.019364754098360654,4.602670669555664
0.0194672131147541,0.9933114051818848
0.01956967213114754,0.6931543350219725
0.019672131147540982,0.435483455657959
0.019774590163934427,0.29150247573852534
0.019877049180327868,0.3863096237182617
0.019979508196721313,0.6207704544067383
0.020081967213114754,0.8808016777038574
0.020184426229508196,2.608180046081543
0.02028688524590164,44.883906841278076
0.02038934426229508,159.95736122131345
0.020491803278688523,298.83803129196167
0.020594262295081968,452.235209941864
0.02069672131147541,617.4565315246582
0.020799180327868854,791.9484972953796
0.020901639344262295,972.7347135543822
0.021004098360655737,1156.3486218452451
0.02110655737704918,1339.8020267486572
0.021209016393442623,1519.7994947433472
0.021311475409836064,1693.1478738784788
0.02141393442622951,1857.0277333259583
0.02151639344262295,2008.4528446197507
0.021618852459016392,2145.2186465263367
0.021721311475409837,2264.423096179962
0.021823770491803278,2364.0087604522705
0.021926229508196723,2442.392635345459
0.022028688524590164,2498.3674049377437
0.022131147540983605,2531.0105681419373
0.02223360655737705,2539.7938013076778
0.02233606557377049,2524.300110340118
0.022438524590163933,2484.8965287208557
0.022540983606557378,2422.395408153534
0.02264344262295082,2337.9446625709534
0.022745901639344264,2232.608807086944
0.022848360655737705,2108.265888690948
0.022950819672131147,1967.0838832855225
0.02305327868852459,1811.9097590446472
0.023155737704918033,1644.9889898300169
0.023258196721311474,1469.406545162201
0.02336065573770492,1287.9708409309387
0.02346311475409836,1104.1366338729858
0.0235655737704918,920.9613561630249
0.023668032786885247,741.59095287323
0.023770491803278688,569.4538235664367
0.023872950819672133,407.36231803894043
0.023975409836065574,258.0536484718323
0.024077868852459015,124.23748970031738
0.02418032786885246,26.931917667388916
0.0242827868852459,1.6475200653076172
0.024385245901639343,0.8568048477172852
0.024487704918032788,0.5912661552429199
0.02459016393442623,0.34421682357788086
0.02469262295081967,0.29425621032714844
0.024795081967213115,0.4618406295776367
0.024897540983606557,0.7191181182861328
0.025,0.9909510612487792
0.025102459016393443,8.944129943847656
0.025204918032786884,81.596302986145
0.02530737704918033,208.97541046142575
0.02540983606557377,353.24041843414307
0.02551229508196721,511.15214824676514
0.025614754098360656,680.1024198532104
0.025717213114754098,857.2922587394713
0.025819672131147543,1039.5611643791199
0.025922131147540984,1223.4484791755676
0.026024590163934425,1406.080877780914
0.02612704918032787,1583.9780330657957
0.02622950819672131,1754.3012380599973
0.026331967213114753,1913.903760910034
0.026434426229508198,2060.2635741233826
0.02653688524590164,2190.842521190643
0.02663934426229508,2303.1618475914
0.026741803278688525,2395.2313899993896
0.026844262295081966,2465.6294345855713
0.02694672131147541,2513.2647156715393
0.027049180327868853,2537.247383594513
0.027151639344262294,2537.2045040130615
0.02725409836065574,2512.8551959991455
0.02735655737704918,2465.069246292114
0.02745901639344262,2394.610619544983
0.027561475409836066,2302.2861599922176
0.027663934426229508,2189.8319005966187
0.027766393442622953,2058.9311599731445
0.027868852459016394,1912.2660756111145
0.027971311475409835,1752.5431752204895
0.02807377049180328,1582.0850372314453
0.02817622950819672,1404.1072368621826
0.028278688524590163,1221.3827848434448
0.028381147540983608,1037.5407099723814
0.02848360655737705,855.381166934967
0.02858606557377049,678.2668590545654
0.028688524590163935,509.3673348426818
0.028790983606557376,351.4874696731567
0.02889344262295082,207.35110044479367
0.028995901639344263,81.88426494598389
0.029098360655737704,10.647904872894285
0.02920081967213115,1.0727763175964355
0.02930327868852459,0.7682919502258301
0.02940573770491803,0.4874110221862793
0.029508196721311476,0.3056645393371582
0.029610655737704918,0.32258033752441406
0.02971311475409836,0.5338311195373534
0.029815573770491804,0.8036971092224121
0.029918032786885245,1.2686848640441895
0.03002049180327869,24.919331073760986
0.03012295081967213,124.92238283157347
0.030225409836065573,259.4891309738159
0.030327868852459017,409.10936594009394
0.03043032786885246,571.4109420776366
0.0305327868852459,743.6582207679749
0.030635245901639345,923.0939269065857
0.030737704918032786,1106.2833666801453
0.03084016393442623,1290.0731205940247
0.030942622950819672,1471.3660240173338
0.031045081967213114,1646.7958331108093
0.03114754098360656,1813.5832428932188
0.03125,1968.6267614364624
0.03135245901639344,2109.680914878845
0.03145491803278688,2233.8424801826477
0.03155737704918033,2338.8172030448914
0.03165983606557377,2423.1688141822815
0.031762295081967214,2485.5424761772156
0.031864754098360655,2524.685633182525
0.031967213114754096,2540.0314092636104
0.03206967213114754,2531.1573028564453
0.032172131147540986,2498.202574253082
0.03227459016393443,2441.9288277626038
0.03237704918032787,2363.293969631195
0.03247950819672131,2263.487219810486
0.03258196721311475,2144.133675098419
0.0326844262295082,2007.3411226272583
0.03278688524590164,1855.8011412620542
0.03288934426229508,1691.7828083038328
0.032991803278688524,1518.2015419006348
0.033094262295081965,1338.075041770935
0.033196721311475406,1154.5697093009949
0.033299180327868855,970.9416389465332
0.033401639344262296,790.191614627838
0.03350409836065574,615.7134175300598
0.03360655737704918,450.47203302383423
0.03370901639344262,297.3502278327942
0.03381147540983607,158.78859758377072
0.03391393442622951,46.57391309738159
0.03401639344262295,3.4795403480529785
0.03411885245901639,0.9504318237304686
0.034221311475409834,0.6660103797912598
0.03432377049180328,0.4099130630493164
0.03442622950819672,0.28874874114990234
0.034528688524590165,0.40715932846069336
0.034631147540983606,0.644373893737793
0.03473360655737705,0.8949637413024902
0.03483606557377049,3.5676598548889156
0.03493852459016394,53.088462352752686
0.03504098360655738,171.95577621459958
0.03514344262295082,312.2668147087097
0.03524590163934426,466.70883893966675
0.0353483606557377,632.881772518158
0.03545081967213115,808.093249797821
0.03555327868852459,989.3444538116455
0.035655737704918034,1173.0362534523008
0.035758196721311475,1356.2378883361816
0.035860655737704916,1535.6436967849731
0.03596311475409836,1708.315050601959
0.036065573770491806,1871.2590336799622
0.03616803278688525,2021.5932726860046
0.03627049180327869,2156.8118691444397
0.03637295081967213,2274.243307113647
0.03647540983606557,2371.8997836112976
0.03657786885245902,2448.4827160835266
0.03668032786885246,2502.5578022003174
0.0367827868852459,2533.2406997680664
0.036885245901639344,2539.6722435951233
0.036987704918032785,2521.835124492645
0.037090163934426226,2480.2494049072266
0.037192622950819675,2415.786051750183
0.037295081967213116,2329.461979866028
0.03739754098360656,2222.2933173179626
0.0375,2096.3603138923645
0.03760245901639344,1953.812849521637
0.03770491803278689,1797.4424242973325
0.03780737704918033,1629.6015143394468
0.03790983606557377,1453.4628152847288
0.03801229508196721,1271.6765999794006
0.038114754098360654,1087.7605676651
0.038217213114754095,904.8059821128844
0.03831967213114754,726.050841808319
0.038422131147540985,554.6414852142334
0.038524590163934426,393.43471527099604
0.03862704918032787,245.1409935951233
0.03872950819672131,113.20248842239378
0.03883196721311476,21.85678482055664
0.0389344262295082,1.38552188873291
0.03903688524590164,0.8477568626403809
0.03913934426229508,0.5790710449218749
0.03924180327868852,0.35247802734374994
0.039344262295081964,0.3115653991699219
0.03944672131147541,0.4940986633300781
0.03954918032786885,0.7541298866271972
0.039651639344262295,1.0149478912353516
0.039754098360655736,11.804080009460447
0.03985655737704918,91.68637990951538
0.039959016393442626,221.01867198944092
0.04006147540983607,366.7522072792053
0.04016393442622951,525.8063435554504
0.04026639344262295,695.693278312683
0.04036885245901639,873.4228491783141
0.04047131147540984,1055.908119678497
0.04057377049180328,1239.7993683815
0.04067622950819672,1422.188651561737
0.04077868852459016,1599.507915973663
0.040881147540983605,1768.9680218696592
0.040983606557377046,1927.5359272956846
0.041086065573770494,2072.6211547851562
0.041188524590163936,2201.69734954834
0.04129098360655738,2312.2424840927124
0.04139344262295082,2402.4213910102844
0.04149590163934426,2470.7387924194336
0.04159836065573771,2516.1927223205566
0.04170081967213115,2538.304424285888
0.04180327868852459,2536.1364483833313
0.04190573770491803,2509.5601558685303
0.042008196721311473,2459.650290012359
0.042110655737704915,2387.059485912323
0.04221311475409836,2292.8310155868526
0.042315573770491804,2178.7166476249695
0.042418032786885246,2046.4709043502808
0.04252049180327869,1898.6236810684202
0.04262295081967213,1737.7449989318848
0.04272540983606558,1566.4886713027952
0.04282786885245902,1387.9778265953062
0.04293032786885246,1205.0570726394653
0.0430327868852459,1021.204376220703
0.04313524590163934,839.3465638160706
0.043237704918032784,662.8656148910522
0.04334016393442623,494.8488593101501
0.04344262295081967,338.077175617218
0.043545081967213115,195.28659582138062
0.043647540983606556,72.50032424926756
0.04375,8.19157361984253
0.043852459016393446,1.0298967361450195
0.04395491803278689,0.7340669631958007
0.04405737704918033,0.46302080154418945
0.04415983606557377,0.3076314926147461
0.04426229508196721,0.3749012947082519
0.04436475409836065,0.5920529365539551
0.0444672131147541,0.8477568626403809
0.04456967213114754,1.529896259307861
0.04467213114754098,30.74977397918701
0.044774590163934425,136.28704547882077
0.044877049180327866,272.38014936447144
0.044979508196721314,423.2710361480713
0.045081967213114756,586.445152759552
0.0451844262295082,759.4013214111328
0.04528688524590164,939.2961144447326
0.04538934426229508,1122.6547122001646
0.04549180327868853,1306.322908401489
0.04559426229508197,1487.1834754943848
0.04569672131147541,1661.965763568878
0.04579918032786885,1827.8259515762327
0.04590163934426229,1981.8092823028564
0.046004098360655735,2121.491682529449
0.04610655737704918,2243.878662586212
0.046209016393442624,2347.1846222877502
0.046311475409836066,2429.513418674469
0.04641393442622951,2489.7706389427185
0.04651639344262295,2527.0310282707214
0.0466188524590164,2540.2064681053157
0.04672131147540984,2528.8681626319885
0.04682377049180328,2493.8024997711177
0.04692622950819672,2435.5260014533997
0.04702868852459016,2354.976511001587
0.0471311475409836,2253.452610969543
0.04723360655737705,2132.3862433433533
0.04733606557377049,1993.9756751060484
0.047438524590163934,1841.1496996879578
0.047540983606557376,1676.1848688125608
0.04764344262295082,1502.0504951477049
0.047745901639344265,1321.6100692749021
0.04784836065573771,1137.9894733428955
0.04795081967213115,954.5329213142395
0.04805327868852459,774.3013858795166
0.04815573770491803,600.5611896514891
0.04825819672131147,436.28754615783686
0.04836065573770492,284.31365489959717
0.04846311475409836,147.30001688003537
0.0485655737704918,39.46888446807861
0.048668032786885244,2.665221691131592
0.048770491803278686,0.9169936180114745
0.048872950819672134,0.644373893737793
0.048975409836065575,0.39575099945068354
0.04907786885245902,0.28835535049438477
0.04918032786885246,0.4378437995910644
0.0492827868852459,0.6667971611022949
0.04938524590163934,0.9327292442321776
0.04948770491803279,4.846966266632079
0.04959016393442623,61.82370185852051
0.04969262295081967,183.84876251220703
0.04979508196721311,325.42494535446167
0.049897540983606554,481.049108505249
0.05,648.1775879859923
0.050102459016393444,824.0184903144836
0.050204918032786885,1005.5670976638793
0.05030737704918033,1189.3651127815247
0.05040983606557377,1372.4841356277464
0.050512295081967216,1551.487112045288
0.05061475409836066,1723.3508348464966
0.0507172131147541,1885.137069225311
0.05081967213114754,2034.2195391654968
0.05092213114754098,2167.9668545722957
0.05102459016393442,2283.7708353996277
0.05112704918032787,2379.6015858650208
0.05122950819672131,2454.0031671524043
0.051331967213114754,2505.816256999969
0.051434426229508196,2534.4228386878967
0.05153688524590164,2538.7222051620483
0.051639344262295085,2518.9370155334473
0.051741803278688527,2475.305664539337
0.05184426229508197,2408.793532848358
0.05194672131147541,2320.354986190796
0.05204918032786885,2211.4274740219116
