{'sampling_frequency': 9760, 'signal_level': 10, 'signal_level_units': 'mVrms', 'signal_frequency': 105, 'signal_frequency_units': 'Hz'}
Time (s),Voltage (mV)
0.0,1197.1872925758362
0.00010245901639344262,1188.4142875671387
0.00020491803278688525,1179.4158697128296
0.00030737704918032784,1170.2408194541931
0.0004098360655737705,1160.9339833259583
0.0005122950819672131,1151.5260457992554
0.0006147540983606557,1142.1247959136963
0.0007172131147540983,1132.70663022995
0.000819672131147541,1123.3203291893005
0.0009221311475409836,1114.037489891052
0.0010245901639344263,1104.8821091651917
0.001127049180327869,1095.8911657333374
0.0012295081967213114,1087.121307849884
0.001331967213114754,1078.6441326141355
0.0014344262295081967,1070.4848170280457
0.0015368852459016393,1062.5914335250854
0.001639344262295082,1055.105209350586
0.0017418032786885246,1048.0056881904602
0.0018442622950819673,1041.386890411377
0.00194672131147541,1035.2523565292358
0.0020491803278688526,1029.6504735946655
0.002151639344262295,1024.5619654655457
0.002254098360655738,1019.8798298835754
0.0023565573770491805,1015.7909274101257
0.0024590163934426227,1012.329089641571
0.0025614754098360654,1009.4825148582458
0.002663934426229508,1007.1980953216553
0.0027663934426229507,1005.5863738059998
0.0028688524590163933,1004.5686721801757
0.002971311475409836,1004.1674137115477
0.0030737704918032786,1004.4821262359618
0.0031762295081967213,1005.4419994354247
0.003278688524590164,1007.0285439491271
0.0033811475409836066,1009.2496275901794
0.0034836065573770492,1012.0332598686217
0.003586065573770492,1015.3955698013306
0.0036885245901639345,1019.3570137023926
0.003790983606557377,1023.8841533660888
0.00389344262295082,1028.9876103401184
0.003995901639344262,1034.5961809158323
0.004098360655737705,1040.7094717025755
0.004200819672131147,1047.3082065582275
0.00430327868852459,1054.3424248695371
0.004405737704918033,1061.79324388504
0.004508196721311476,1069.5918202400208
0.004610655737704918,1077.7114033699036
0.004713114754098361,1086.1295700073242
0.004815573770491803,1094.864022731781
0.0049180327868852455,1103.8109064102173
0.0050204918032786885,1112.8939032554626
0.005122950819672131,1122.199559211731
0.005225409836065574,1131.549274921417
0.005327868852459016,1140.9619331359863
0.005430327868852459,1150.353741645813
0.005532786885245901,1159.7715139389038
0.0056352459016393444,1169.1133618354797
0.005737704918032787,1178.330898284912
0.00584016393442623,1187.3533129692078
0.005942622950819672,1196.164083480835
0.006045081967213115,1204.7773718833923
0.006147540983606557,1213.0897164344788
0.00625,1221.062958240509
0.0063524590163934426,1228.681755065918
0.006454918032786886,1235.9559416770935
0.006557377049180328,1242.7793025970457
0.00665983606557377,1249.1561651229856
0.006762295081967213,1255.077087879181
0.006864754098360655,1260.479128360748
0.0069672131147540985,1265.3603196144104
0.007069672131147541,1269.7088599205015
0.007172131147540984,1273.4382033348081
0.007274590163934426,1276.5813946723936
0.007377049180327869,1279.0998816490173
0.007479508196721311,1281.0577869415283
0.007581967213114754,1282.3992490768433
0.007684426229508197,1283.0927968025208
0.00778688524590164,1283.160853385925
0.007889344262295083,1282.6242685317993
0.007991803278688524,1281.3461422920227
0.008094262295081967,1279.4374108314512
0.00819672131147541,1277.0156979560852
0.008299180327868852,1273.9468574523924
0.008401639344262295,1270.2718019485474
0.008504098360655738,1266.016101837158
0.00860655737704918,1261.2753510475159
0.008709016393442622,1255.9240579605103
0.008811475409836065,1250.1156449317932
0.008913934426229508,1243.7580585479734
0.009016393442622951,1236.9760036468504
0.009118852459016393,1229.7439098358154
0.009221311475409836,1222.1046566963196
0.009323770491803279,1214.1506910324097
0.009426229508196722,1205.890667438507
0.009528688524590163,1197.328519821167
0.009631147540983606,1188.4642481803894
0.00973360655737705,1179.459536075592
0.009836065573770491,1170.2785849571226
0.009938524590163934,1160.9705686569214
0.010040983606557377,1151.6165256500244
0.01014344262295082,1142.212128639221
0.010245901639344262,1132.8714609146118
0.010348360655737705,1123.4733581542969
0.010450819672131148,1114.1244292259216
0.01055327868852459,1105.017042160034
0.010655737704918032,1096.1354613304138
0.010758196721311475,1087.351834774017
0.010860655737704918,1078.8896083831787
0.010963114754098361,1070.751142501831
0.011065573770491803,1062.8876566886902
0.011168032786885246,1055.3849101066587
0.011270491803278689,1048.292863368988
0.011372950819672132,1041.5902733802795
0.011475409836065573,1035.4164004325864
0.011577868852459016,1029.7582626342773
0.01168032786885246,1024.604845046997
0.0117827868852459,1019.9848651885985
0.011885245901639344,1015.9494638442992
0.011987704918032787,1012.4805450439453
0.01209016393442623,1009.5946311950684
0.012192622950819671,1007.3534846305847
0.012295081967213115,1005.7224869728087
0.012397540983606558,1004.7158002853394
0.0125,1004.3432593345642
0.012602459016393442,1004.6469569206238
0.012704918032786885,1005.5899143218994
0.012807377049180328,1007.1563959121703
0.012909836065573771,1009.3660712242125
0.013012295081967213,1012.1249198913573
0.013114754098360656,1015.4659867286682
0.013217213114754099,1019.4828987121582
0.01331967213114754,1024.01043176651
0.013422131147540983,1029.0670752525327
0.013524590163934426,1034.685480594635
0.01362704918032787,1040.8089995384216
0.01372950819672131,1047.406554222107
0.013831967213114754,1054.4423460960388
0.013934426229508197,1061.8435978889465
0.01403688524590164,1069.6583032608032
0.014139344262295081,1077.799916267395
0.014241803278688524,1086.2727642059326
0.014344262295081968,1094.9965953826904
0.01444672131147541,1103.9143681526184
0.014549180327868852,1113.0193948745728
0.014651639344262295,1122.2731232643125
0.014754098360655738,1131.6468358039856
0.01485655737704918,1141.046118736267
0.014959016393442623,1150.4631042480469
0.015061475409836066,1159.8427176475525
0.015163934426229509,1169.1825985908508
0.01526639344262295,1178.4119367599485
0.015368852459016393,1187.4312043190002
0.015471311475409836,1196.279740333557
0.01557377049180328,1204.8650979995728
0.01567622950819672,1213.1664276123047
0.015778688524590165,1221.153438091278
0.015881147540983607,1228.781282901764
0.015983606557377048,1236.080253124237
0.016086065573770493,1242.9189562797544
0.016188524590163934,1249.2958188056944
0.016290983606557376,1255.1954984664917
0.01639344262295082,1260.6006860733032
0.016495901639344262,1265.4716491699219
0.016598360655737703,1269.7725892066956
0.016700819672131148,1273.4901309013367
0.01680327868852459,1276.6620397567747
0.016905737704918034,1279.199409484863
0.017008196721311476,1281.1065673828123
0.017110655737704917,1282.420492172241
0.01721311475409836,1283.103024959564
0.017315573770491803,1283.1285953521726
0.017418032786885244,1282.5082182884216
0.01752049180327869,1281.2950015068054
0.01762295081967213,1279.4283628463745
0.017725409836065575,1276.9401669502258
0.017827868852459017,1273.856770992279
0.017930327868852458,1270.2592134475708
0.018032786885245903,1266.0247564315794
0.018135245901639344,1261.1927390098572
0.018237704918032786,1255.8312177658079
0.01834016393442623,1249.9944806098938
0.018442622950819672,1243.6538100242612
0.018545081967213113,1236.9181752204895
0.018647540983606558,1229.7002434730528
0.01875,1222.11252450943
0.018852459016393444,1214.1841292381287
0.018954918032786885,1205.8686375617979
0.019057377049180327,1197.2785592079163
0.01915983606557377,1188.430416584015
0.019262295081967213,1179.3938398361206
0.019364754098360654,1170.2219367027283
0.0194672131147541,1160.930836200714
0.01956967213114754,1151.5232920646667
0.019672131147540982,1142.138957977295
0.019774590163934427,1132.7046632766724
0.019877049180327868,1123.3222961425781
0.019979508196721313,1114.052438735962
0.020081967213114754,1104.9379706382751
0.020184426229508196,1095.9647297859192
0.02028688524590164,1087.2255563735962
0.02038934426229508,1078.7448406219482
0.020491803278688523,1070.5513000488281
0.020594262295081968,1062.6771926879883
0.02069672131147541,1055.2074909210205
0.020799180327868854,1048.1563568115232
0.020901639344262295,1041.5226101875305
0.021004098360655737,1035.3538513183594
0.02110655737704918,1029.6878457069397
0.021209016393442623,1024.5182991027832
0.021311475409836064,1019.9010729789733
0.02141393442622951,1015.8703923225403
0.02151639344262295,1012.4376654624938
0.021618852459016392,1009.58833694458
0.021721311475409837,1007.3263406753539
0.021823770491803278,1005.7055711746215
0.021926229508196723,1004.7201275825499
0.022028688524590164,1004.3527007102966
0.022131147540983605,1004.6607255935669
0.02223360655737705,1005.6324005126953
0.02233606557377049,1007.1548223495483
0.022438524590163933,1009.3239784240722
0.022540983606557378,1012.116265296936
0.02264344262295082,1015.4412031173705
0.022745901639344264,1019.4203495979308
0.022848360655737705,1023.9943027496337
0.022950819672131147,1029.0619611740112
0.02305327868852459,1034.6288323402405
0.023155737704918033,1040.749990940094
0.023258196721311474,1047.3986864089966
0.02336065573770492,1054.456114768982
0.02346311475409836,1061.8711352348328
0.0235655737704918,1069.6571230888364
0.023668032786885247,1077.8412222862244
0.023770491803278688,1086.2794518470764
0.023872950819672133,1094.9753522872925
0.023975409836065574,1103.9320707321167
0.024077868852459015,1113.0406379699707
0.02418032786885246,1122.2986936569212
0.0242827868852459,1131.666111946106
0.024385245901639343,1141.0591006278992
0.024487704918032788,1150.5185723304746
0.02459016393442623,1159.989058971405
0.02469262295081967,1169.3037629127502
0.024795081967213115,1178.5173654556274
0.024897540983606557,1187.574005126953
0.025,1196.412706375122
0.025102459016393443,1204.9740672111511
0.025204918032786884,1213.2797241210938
0.02530737704918033,1221.2679147720335
0.02540983606557377,1228.9146423339844
0.02551229508196721,1236.1734867095945
0.025614754098360656,1243.0247783660889
0.025717213114754098,1249.419343471527
0.025819672131147543,1255.2973866462708
0.025922131147540984,1260.7025742530823
0.026024590163934425,1265.547966957092
0.02612704918032787,1269.851267337799
0.02622950819672131,1273.5695958137512
0.026331967213114753,1276.7064929008482
0.026434426229508198,1279.2560577392578
0.02653688524590164,1281.1683297157285
0.02663934426229508,1282.4692726135254
0.026741803278688525,1283.1344962120054
0.026844262295081966,1283.1765890121458
0.02694672131147541,1282.6093196868894
0.027049180327868853,1281.3217520713804
0.027151639344262294,1279.4519662857056
0.02725409836065574,1277.0691990852354
0.02735655737704918,1274.006652832031
0.02745901639344262,1270.3343510627744
0.027561475409836066,1266.1274313926697
0.027663934426229508,1261.3489151000977
0.027766393442622953,1255.9748053550718
0.027868852459016394,1250.1156449317932
0.027971311475409835,1243.7427163124084
0.02807377049180328,1236.9586944580078
0.02817622950819672,1229.7147989273071
0.028278688524590163,1222.14320898056
0.028381147540983608,1214.1742944717407
0.02848360655737705,1205.8737516403198
0.02858606557377049,1197.3182916641233
0.028688524590163935,1188.5197162628174
0.028790983606557376,1179.5299530029297
0.02889344262295082,1170.3458547592163
0.028995901639344263,1160.998499393463
0.029098360655737704,1151.6267538070679
0.02920081967213115,1142.2290444374084
0.02930327868852459,1132.8317284584043
0.02940573770491803,1123.454475402832
0.029508196721311476,1114.1621947288513
0.029610655737704918,1105.0347447395322
0.02971311475409836,1096.1087107658384
0.029815573770491804,1087.3707175254822
0.029918032786885245,1078.9147853851318
0.03002049180327869,1070.7102298736572
0.03012295081967213,1062.8546118736267
0.030225409836065573,1055.37428855896
0.030327868852459017,1048.2558846473694
0.03043032786885246,1041.580045223236
0.0305327868852459,1035.4108929634094
0.030635245901639345,1029.7149896621704
0.030737704918032786,1024.5442628860474
0.03084016393442623,1019.9022531509398
0.030942622950819672,1015.8412814140319
0.031045081967213114,1012.3416781425476
0.03114754098360656,1009.4419956207274
0.03125,1007.1965217590331
0.03135245901639344,1005.5863738059998
0.03145491803278688,1004.540741443634
0.03155737704918033,1004.1866898536682
0.03165983606557377,1004.4691443443298
0.031762295081967214,1005.4006934165953
0.031864754098360655,1006.9848775863647
0.031967213114754096,1009.2240571975708
0.03206967213114754,1011.9714975357055
0.032172131147540986,1015.3184652328491
0.03227459016393443,1019.2629933357238
0.03237704918032787,1023.8208174705505
0.03247950819672131,1028.9246678352356
0.03258196721311475,1034.5320582389832
0.0326844262295082,1040.6532168388367
0.03278688524590164,1047.2389698028564
0.03288934426229508,1054.2625665664673
0.032991803278688524,1061.6854548454285
0.033094262295081965,1069.5343852043152
0.033196721311475406,1077.6771783828735
0.033299180327868855,1086.104393005371
0.033401639344262296,1094.8014736175537
0.03350409836065574,1103.6995768547058
0.03360655737704918,1112.7943754196165
0.03370901639344262,1122.0693469047546
0.03381147540983607,1131.482398509979
0.03391393442622951,1140.851390361786
0.03401639344262295,1150.2494931221008
0.03411885245901639,1159.6550703048704
0.034221311475409834,1168.982756137848
0.03432377049180328,1178.1723618507385
0.03442622950819672,1187.1786475181577
0.034528688524590165,1196.0153818130493
0.034631147540983606,1204.6420454978943
0.03473360655737705,1212.963044643402
0.03483606557377049,1220.9909677505493
0.03493852459016394,1228.6542177200317
0.03504098360655738,1235.91148853302
0.03514344262295082,1242.780876159668
0.03524590163934426,1249.187636375427
0.0353483606557377,1255.0597786903381
0.03545081967213115,1260.4559183120728
0.03555327868852459,1265.3217673301695
0.035655737704918034,1269.5719599723816
0.035758196721311475,1273.3115315437315
0.035860655737704916,1276.469278335571
0.03596311475409836,1279.0003538131714
0.036065573770491806,1280.9555053710938
0.03616803278688525,1282.2957873344421
0.03627049180327869,1282.99366235733
0.03637295081967213,1283.0353617668152
0.03647540983606557,1282.4031829833984
0.03657786885245902,1281.151020526886
0.03668032786885246,1279.3174266815183
0.0367827868852459,1276.9240379333496
0.036885245901639344,1273.8646388053894
0.036987704918032785,1270.1903700828552
0.037090163934426226,1265.9712553024292
0.037192622950819675,1261.1604809761045
0.037295081967213116,1255.806827545166
0.03739754098360656,1249.9527812004087
0.0375,1243.63374710083
0.03760245901639344,1236.8690013885498
0.03770491803278689,1229.6321868896484
0.03780737704918033,1222.0295190811157
0.03790983606557377,1214.0846014022825
0.03801229508196721,1205.8210372924805
0.038114754098360654,1197.290754318237
0.038217213114754095,1188.5106682777405
0.03831967213114754,1179.5209050178528
0.038422131147540985,1170.3584432601929
0.038524590163934426,1161.085832118988
0.03862704918032787,1151.7022848129272
0.03872950819672131,1142.3006415367124
0.03883196721311476,1132.8927040100095
0.0389344262295082,1123.4682440757751
0.03903688524590164,1114.204680919647
0.03913934426229508,1105.091392993927
0.03924180327868852,1096.1161851882935
0.039344262295081964,1087.3943209648132
0.03944672131147541,1078.9045572280884
0.03954918032786885,1070.706295967102
0.039651639344262295,1062.8341555595398
0.039754098360655736,1055.3581595420837
0.03985655737704918,1048.2787013053894
0.039959016393442626,1041.6197776794434
0.04006147540983607,1035.4427576065063
0.04016393442622951,1029.7767519950867
0.04026639344262295,1024.6437907218933
0.04036885245901639,1020.0493812561035
0.04047131147540984,1016.0293221473693
0.04057377049180328,1012.5993490219116
0.04067622950819672,1009.7834587097168
0.04077868852459016,1007.4565529823303
0.040881147540983605,1005.8066725730896
0.040983606557377046,1004.7897577285767
0.041086065573770494,1004.419183731079
0.041188524590163936,1004.7846436500549
0.04129098360655738,1005.7748079299927
0.04139344262295082,1007.2803139686583
0.04149590163934426,1009.46284532547
0.04159836065573771,1012.2126460075378
0.04170081967213115,1015.5824303627014
0.04180327868852459,1019.5320725440979
0.04190573770491803,1024.0513443946836
0.042008196721311473,1029.1170358657837
0.042110655737704915,1034.7141981124876
0.04221311475409836,1040.8125400543213
0.042315573770491804,1047.421109676361
0.042418032786885246,1054.437232017517
0.04252049180327869,1061.883723735809
0.04262295081967213,1069.7003960609434
0.04272540983606558,1077.8506636619568
0.04282786885245902,1086.2711906433105
0.04293032786885246,1094.9812531471252
0.0430327868852459,1103.9037466049192
0.04313524590163934,1113.0107402801511
0.043237704918032784,1122.2829580307005
0.04334016393442623,1131.6177248954773
0.04344262295081967,1141.0669684410095
0.043545081967213115,1150.4808068275452
0.043647540983606556,1159.8462581634521
0.04375,1169.139325618744
0.043852459016393446,1178.3324718475342
0.04395491803278689,1187.4217629432678
0.04405737704918033,1196.310818195343
0.04415983606557377,1204.8961758613586
0.04426229508196721,1213.2761836051939
0.04436475409836065,1221.3210225105283
0.0444672131147541,1228.8902521133423
0.04456967213114754,1236.1526370048523
0.04467213114754098,1243.0235981941223
0.044774590163934425,1249.4401931762695
0.044877049180327866,1255.3300380706787
0.044979508196721314,1260.723030567169
0.045081967213114756,1265.599501132965
0.0451844262295082,1269.8788046836853
0.04528688524590164,1273.6050009727478
0.04538934426229508,1276.7643213272092
0.04549180327868853,1279.304051399231
0.04559426229508197,1281.2273383140562
0.04569672131147541,1282.5514912605286
0.04579918032786885,1283.232057094574
0.04590163934426229,1283.2741498947141
0.046004098360655735,1282.702553272247
0.04610655737704918,1281.4728140830994
0.046209016393442624,1279.6352863311765
0.046311475409836066,1277.1935105323792
0.04641393442622951,1274.1321444511414
0.04651639344262295,1270.507836341858
0.0466188524590164,1266.273772716522
0.04672131147540984,1261.4582777023315
0.04682377049180328,1256.0778737068174
0.04692622950819672,1250.2419233322141
0.04702868852459016,1243.927216529846
0.0471311475409836,1237.140440940857
0.04723360655737705,1229.9386382102966
0.04733606557377049,1222.3422646522522
0.047438524590163934,1214.3997073173523
0.047540983606557376,1206.1196208000183
0.04764344262295082,1197.5488185882568
0.047745901639344265,1188.7372612953186
0.04784836065573771,1179.7451376914978
0.04795081967213115,1170.5299615859985
0.04805327868852459,1161.2022757530212
0.04815573770491803,1151.828956604004
0.04825819672131147,1142.3891544342039
0.04836065573770492,1132.985544204712
0.04846311475409836,1123.620092868805
0.0485655737704918,1114.3341064453125
0.048668032786885244,1105.2282929420471
0.048770491803278686,1096.2538719177246
0.048872950819672134,1087.4812602996826
0.048975409836065575,1078.9911031723022
0.04907786885245902,1070.7912683486938
0.04918032786885246,1062.904179096222
0.0492827868852459,1055.4148077964783
0.04938524590163934,1048.3101725578308
0.04948770491803279,1041.6406273841858
0.04959016393442623,1035.4187607765198
0.04969262295081967,1029.7606229782104
0.04979508196721311,1024.5977640151978
0.049897540983606554,1019.9651956558226
0.05,1015.9101247787474
0.050102459016393444,1012.4282240867615
0.050204918032786885,1009.5623731613159
0.05030737704918033,1007.3180794715881
0.05040983606557377,1005.6740999221801
0.050512295081967216,1004.5985698699951
0.05061475409836066,1004.2043924331665
0.0507172131147541,1004.4691443443298
0.05081967213114754,1005.3932189941406
0.05092213114754098,1006.9534063339233
0.05102459016393442,1009.1335773468018
0.05112704918032787,1011.8861317634583
0.05122950819672131,1015.2692914009094
0.051331967213114754,1019.2346692085266
0.051434426229508196,1023.7625956535339
0.05153688524590164,1028.864872455597
0.051639344262295085,1034.515929222107
0.051741803278688527,1040.6028628349304
