{'sampling_frequency': 9760, 'signal_level': 10, 'signal_level_units': 'mVrms', 'signal_frequency': 105, 'signal_frequency_units': 'Hz'}
Time (s),Voltage (mV)
0.0,1004.4003009796143
0.00010245901639344262,1004.842472076416
0.00020491803278688525,1005.9541940689087
0.00030737704918032784,1007.6544284820557
0.0004098360655737705,1009.9888086318969
0.0005122950819672131,1012.9215359687804
0.0006147540983606557,1016.3920283317565
0.0007172131147540983,1020.4840779304504
0.000819672131147541,1025.1359224319458
0.0009221311475409836,1030.352282524109
0.0010245901639344263,1036.0525131225586
0.001127049180327869,1042.2495961189268
0.0012295081967213114,1048.9203214645386
0.001331967213114754,1056.0701966285706
0.0014344262295081967,1063.6036276817322
0.0015368852459016393,1071.4647531509397
0.001639344262295082,1079.7051072120667
0.0017418032786885246,1088.2153272628782
0.0018442622950819673,1096.987545490265
0.00194672131147541,1105.9847831726072
0.0020491803278688526,1115.1511788368225
0.002151639344262295,1124.4009733200073
0.002254098360655738,1133.7518692016602
0.0023565573770491805,1143.1318759918213
0.0024590163934426227,1152.567744255066
0.0025614754098360654,1161.9792222976685
0.002663934426229508,1171.302580833435
0.0027663934426229507,1180.4599285125732
0.0028688524590163933,1189.419400691986
0.002971311475409836,1198.2329249382017
0.0030737704918032786,1206.7529797554016
0.0031762295081967213,1215.0027751922607
0.003278688524590164,1222.9040265083313
0.0033811475409836066,1230.439031124115
0.0034836065573770492,1237.6502752304077
0.003586065573770492,1244.3587660789487
0.0036885245901639345,1250.647509098053
0.003790983606557377,1256.479525566101
0.00389344262295082,1261.7466330528257
0.003995901639344262,1266.4602398872375
0.004098360655737705,1270.6400156021118
0.004200819672131147,1274.2222309112547
0.00430327868852459,1277.237570285797
0.004405737704918033,1279.6258449554443
0.004508196721311476,1281.4350485801695
0.004610655737704918,1282.6376438140867
0.004713114754098361,1283.167541027069
0.004815573770491803,1283.0817818641663
0.0049180327868852455,1282.2989344596863
0.0050204918032786885,1280.9263944625852
0.005122950819672131,1278.9736032485962
0.005225409836065574,1276.401615142822
0.005327868852459016,1273.1565356254578
0.005430327868852459,1269.315469264984
0.005532786885245901,1264.90398645401
0.0056352459016393444,1259.9858164787292
0.005737704918032787,1254.5275211334229
0.00584016393442623,1248.5829949378965
0.005942622950819672,1242.164433002472
0.006045081967213115,1235.271441936493
0.006147540983606557,1227.9661774635315
0.00625,1220.2974200248718
0.0063524590163934426,1212.2443199157715
0.006454918032786886,1203.9119124412537
0.006557377049180328,1195.2883958816526
0.00665983606557377,1186.446940898895
0.006762295081967213,1177.431607246399
0.006864754098360655,1168.2010889053345
0.0069672131147540985,1158.7616801261902
0.007069672131147541,1149.3576765060425
0.007172131147540984,1139.968228340149
0.007274590163934426,1130.4894804954529
0.007377049180327869,1121.1389780044556
0.007479508196721311,1111.9202613830566
0.007581967213114754,1102.8183817863464
0.007684426229508197,1093.903362751007
0.00778688524590164,1085.243260860443
0.007889344262295083,1076.785361766815
0.007991803278688524,1068.6937093734741
0.008094262295081967,1060.9325051307678
0.00819672131147541,1053.5202383995054
0.008299180327868852,1046.5178847312925
0.008401639344262295,1039.9639964103696
0.008504098360655738,1033.946692943573
0.00860655737704918,1028.3577919006348
0.008709016393442622,1023.3397006988525
0.008811475409836065,1018.8876986503601
0.008913934426229508,1014.9581193923949
0.009016393442622951,1011.6201996803283
0.009118852459016393,1008.9258670806885
0.009221311475409836,1006.7932963371276
0.009323770491803279,1005.2991986274719
0.009426229508196722,1004.4195771217346
0.009528688524590163,1004.2335033416747
0.009631147540983606,1004.675281047821
0.00973360655737705,1005.7759881019592
0.009836065573770491,1007.4817299842833
0.009938524590163934,1009.8082423210144
0.010040983606557377,1012.7370357513428
0.01014344262295082,1016.2806987762451
0.010245901639344262,1020.3762888908385
0.010348360655737705,1025.0312805175781
0.010450819672131148,1030.2079081535337
0.01055327868852459,1035.9321355819702
0.010655737704918032,1042.159903049469
0.010758196721311475,1048.8420367240906
0.010860655737704918,1055.9919118881226
0.010963114754098361,1063.5363578796387
0.011065573770491803,1071.4612126350403
0.011168032786885246,1079.6775698661804
0.011270491803278689,1088.1940841674805
0.011372950819672132,1096.9934463500977
0.011475409836065573,1105.951738357544
0.011577868852459016,1115.11892080307
0.01168032786885246,1124.4108080863953
0.0117827868852459,1133.8301539421082
0.011885245901639344,1143.2719230651855
0.011987704918032787,1152.6684522628782
0.01209016393442623,1162.0205283164978
0.012192622950819671,1171.3210701942442
0.012295081967213115,1180.4961204528809
0.012397540983606558,1189.4500851631165
0.0125,1198.3182907104492
0.012602459016393442,1206.8867325782776
0.012704918032786885,1215.1023030281067
0.012807377049180328,1222.9783773422241
0.012909836065573771,1230.531084537506
0.013012295081967213,1237.725019454956
0.013114754098360656,1244.4649815559385
0.013217213114754099,1250.7403492927551
0.01331967213114754,1256.5027356147764
0.013422131147540983,1261.8072152137756
0.013524590163934426,1266.5298700332642
0.01362704918032787,1270.6632256507874
0.01372950819672131,1274.2702245712278
0.013831967213114754,1277.3154616355896
0.013934426229508197,1279.707670211792
0.01403688524590164,1281.5133333206177
0.014139344262295081,1282.6423645019531
0.014241803278688524,1283.212387561798
0.014344262295081968,1283.1282019615173
0.01444672131147541,1282.378005981445
0.014549180327868852,1281.031823158264
0.014651639344262295,1279.0503144264221
0.014754098360655738,1276.482653617859
0.01485655737704918,1273.304843902588
0.014959016393442623,1269.5656657218933
0.015061475409836066,1265.1545763015745
0.015163934426229509,1260.2301120758054
0.01526639344262295,1254.8638701438904
0.015368852459016393,1248.9378333091734
0.015471311475409836,1242.479932308197
0.01557377049180328,1235.612905025482
0.01567622950819672,1228.2891511917114
0.015778688524590165,1220.5531239509583
0.015881147540983607,1212.5185132026672
0.015983606557377048,1204.2171835899353
0.016086065573770493,1195.5645561218262
0.016188524590163934,1186.7093324661255
0.016290983606557376,1177.678656578064
0.01639344262295082,1168.4760689735413
0.016495901639344262,1159.1279268264768
0.016598360655737703,1149.7034668922424
0.016700819672131148,1140.28844833374
0.01680327868852459,1130.8895587921143
0.016905737704918034,1121.5001106262205
0.017008196721311476,1112.2255325317383
0.017110655737704917,1103.111457824707
0.01721311475409836,1094.2054867744446
0.017315573770491803,1085.5135202407837
0.017418032786885244,1077.1185636520386
0.01752049180327869,1069.006848335266
0.01762295081967213,1061.1968636512756
0.017725409836065575,1053.775155544281
0.017827868852459017,1046.7846035957336
0.017930327868852458,1040.2153730392456
0.018032786885245903,1034.1268658638
0.018135245901639344,1028.5788774490356
0.018237704918032786,1023.5281348228453
0.01834016393442623,1019.0407276153563
0.018442622950819672,1015.1194095611571
0.018545081967213113,1011.7787361145018
0.018647540983606558,1009.0875506401062
0.01875,1006.9699287414551
0.018852459016393444,1005.4829120635986
0.018954918032786885,1004.5549035072326
0.019057377049180327,1004.2795300483702
0.01915983606557377,1004.70871925354
0.019262295081967213,1005.8172941207886
0.019364754098360654,1007.4809432029723
0.0194672131147541,1009.7736239433289
0.01956967213114754,1012.7173662185669
0.019672131147540982,1016.2559151649475
0.019774590163934427,1020.3448176383971
0.019877049180327868,1024.9679446220396
0.019979508196721313,1030.1917791366577
0.020081967213114754,1035.9301686286926
0.020184426229508196,1042.166984081268
0.02028688524590164,1048.8506913185117
0.02038934426229508,1055.9761762619019
0.020491803278688523,1063.5245561599731
0.020594262295081968,1071.3884353637695
0.02069672131147541,1079.5977115631104
0.020799180327868854,1088.1032109260557
0.020901639344262295,1096.857726573944
0.021004098360655737,1105.821132659912
0.02110655737704918,1114.948582649231
0.021209016393442623,1124.2451906204224
0.021311475409836064,1133.6299180984497
0.02141393442622951,1143.0307745933533
0.02151639344262295,1152.4615287780762
0.021618852459016392,1161.8415355682373
0.021721311475409837,1171.1408972740173
0.021823770491803278,1180.284869670868
0.021926229508196723,1189.2750263214111
0.022028688524590164,1198.0720281600952
0.022131147540983605,1206.6196203231812
0.02223360655737705,1214.8678421974182
0.02233606557377049,1222.7915167808533
0.022438524590163933,1230.343437194824
0.022540983606557378,1237.5239968299866
0.02264344262295082,1244.2301273345945
0.022745901639344264,1250.499987602234
0.022848360655737705,1256.283617019653
0.022950819672131147,1261.5951776504514
0.02305327868852459,1266.3331747055054
0.023155737704918033,1270.4810857772825
0.023258196721311474,1274.0758895874023
0.02336065573770492,1277.1466970443726
0.02346311475409836,1279.5967340469358
0.0235655737704918,1281.3768267631528
0.023668032786885247,1282.4700593948364
0.023770491803278688,1283.0211997032163
0.023872950819672133,1282.9027891159058
0.023975409836065574,1282.1120738983154
0.024077868852459015,1280.7363867759705
0.02418032786885246,1278.7796616554258
0.0242827868852459,1276.162040233612
0.024385245901639343,1272.9688882827759
0.024487704918032788,1269.199812412262
0.02459016393442623,1264.8249149322507
0.02469262295081967,1259.947657585144
0.024795081967213115,1254.565680027008
0.024897540983606557,1248.656165599823
0.025,1242.1754479408262
0.025102459016393443,1235.2612137794495
0.025204918032786884,1227.9693245887754
0.02530737704918033,1220.277750492096
0.02540983606557377,1212.208914756775
0.02551229508196721,1203.896176815033
0.025614754098360656,1195.27108669281
0.025717213114754098,1186.4221572875977
0.025819672131147543,1177.378499507904
0.025922131147540984,1168.1951880455017
0.026024590163934425,1158.8702559471128
0.02612704918032787,1149.524474143982
0.02622950819672131,1140.0937199592588
0.026331967213114753,1130.7109594345093
0.026434426229508198,1121.3321328163147
0.02653688524590164,1112.0988607406616
0.02663934426229508,1103.0083894729614
0.026741803278688525,1094.1035985946655
0.026844262295081966,1085.4486107826233
0.02694672131147541,1077.040672302246
0.027049180327868853,1068.9022064208984
0.027151639344262294,1061.1170053482056
0.02725409836065574,1053.741717338562
0.02735655737704918,1046.7767357826233
0.02745901639344262,1040.2228474617004
0.027561475409836066,1034.1426014900208
0.027663934426229508,1028.5765171051025
0.027766393442622953,1023.5737681388855
0.027868852459016394,1019.0623641014098
0.027971311475409835,1015.113115310669
0.02807377049180328,1011.7838501930237
0.02817622950819672,1009.0914845466614
0.028278688524590163,1006.9892048835753
0.028381147540983608,1005.4663896560669
0.02848360655737705,1004.5816540718077
0.02858606557377049,1004.3975472450255
0.028688524590163935,1004.8231959342957
0.028790983606557376,1005.8408975601196
0.02889344262295082,1007.5368046760558
0.028995901639344263,1009.8578095436095
0.029098360655737704,1012.7555251121521
0.02920081967213115,1016.3562297821045
0.02930327868852459,1020.4994201660156
0.02940573770491803,1025.11625289917
0.029508196721311476,1030.2787184715269
0.029610655737704918,1035.983669757843
0.02971311475409836,1042.181932926178
0.029815573770491804,1048.8597393035889
0.029918032786885245,1055.9938788414001
0.03002049180327869,1063.53360414505
0.03012295081967213,1071.4116454124448
0.030225409836065573,1079.6425580978394
0.030327868852459017,1088.1240606307983
0.03043032786885246,1096.9049334526062
0.0305327868852459,1105.8738470077515
0.030635245901639345,1115.0075912475586
0.030737704918032786,1124.2758750915527
0.03084016393442623,1133.6169362068176
0.030942622950819672,1143.048870563507
0.031045081967213114,1152.4721503257751
0.03114754098360656,1161.8946433067322
0.03125,1171.216821670532
0.03135245901639344,1180.4013133049011
0.03145491803278688,1189.4174337387085
0.03155737704918033,1198.244333267212
0.03165983606557377,1206.7824840545654
0.031762295081967214,1215.0145769119263
0.031864754098360655,1222.9000926017761
0.031967213114754096,1230.5432796478271
0.03206967213114754,1237.808811664581
0.032172131147540986,1244.55349445343
0.03227459016393443,1250.8646607398985
0.03237704918032787,1256.6475033760069
0.03247950819672131,1261.86386346817
0.03258196721311475,1266.5758967399597
0.0326844262295082,1270.7745552062988
0.03278688524590164,1274.3795871734617
0.03288934426229508,1277.4153828620908
0.032991803278688524,1279.7887086868284
0.033094262295081965,1281.6014528274536
0.033196721311475406,1282.7942132949827
0.033299180327868855,1283.3433866500854
0.033401639344262296,1283.2572340965269
0.03350409836065574,1282.5361490249634
0.03360655737704918,1281.1392188072205
0.03370901639344262,1279.1722655296326
0.03381147540983607,1276.5530705451963
0.03391393442622951,1273.3658194541931
0.03401639344262295,1269.5703864097593
0.03411885245901639,1265.208077430725
0.034221311475409834,1260.2977752685547
0.03432377049180328,1254.8701643943784
0.03442622950819672,1248.9189505577087
0.034528688524590165,1242.4830794334412
0.034631147540983606,1235.5865478515625
0.03473360655737705,1228.2777428627014
0.03483606557377049,1220.6140995025635
0.03493852459016394,1212.597584724426
0.03504098360655738,1204.2502284049988
0.03514344262295082,1195.6164836883545
0.03524590163934426,1186.7679476737976
0.0353483606557377,1177.7069807052612
0.03545081967213115,1168.5028195381165
0.03555327868852459,1159.215259552002
0.035655737704918034,1149.7884392738342
0.035758196721311475,1140.3411626815796
0.035860655737704916,1130.9454202651975
0.03596311475409836,1121.5768218040464
0.036065573770491806,1112.2928023338316
0.03616803278688525,1103.1862020492554
0.03627049180327869,1094.2515134811401
0.03637295081967213,1085.5902314186096
0.03647540983606557,1077.170491218567
0.03657786885245902,1069.0497279167175
0.03668032786885246,1061.3003253936768
0.0367827868852459,1053.836917877197
0.036885245901639344,1046.8196153640747
0.036987704918032785,1040.2625799179077
0.037090163934426226,1034.2555046081543
0.037192622950819675,1028.6607027053833
0.037295081967213116,1023.6371040344238
0.03739754098360656,1019.1327810287476
0.0375,1015.1921868324279
0.03760245901639344,1011.8302702903748
0.03770491803278689,1009.1347575187683
0.03780737704918033,1007.0128083229064
0.03790983606557377,1005.526578426361
0.03801229508196721,1004.6005368232727
0.038114754098360654,1004.349160194397
0.038217213114754095,1004.7653675079345
0.03831967213114754,1005.8554530143738
0.038422131147540985,1007.5706362724304
0.038524590163934426,1009.8408937454224
0.03862704918032787,1012.7641797065734
0.03872950819672131,1016.2818789482116
0.03883196721311476,1020.3908443450927
0.0389344262295082,1025.0434756278992
0.03903688524590164,1030.2452802658079
0.03913934426229508,1035.9423637390137
0.03924180327868852,1042.17209815979
0.039344262295081964,1048.8487243652341
0.03944672131147541,1055.956506729126
0.03954918032786885,1063.4801030158997
0.039651639344262295,1071.353030204773
0.039754098360655736,1079.5497179031372
0.03985655737704918,1088.0261063575745
0.039959016393442626,1096.7979311943054
0.04006147540983607,1105.7821869850156
0.04016393442622951,1114.9544835090637
0.04026639344262295,1124.2314219474792
0.04036885245901639,1133.5150480270386
0.04047131147540984,1142.8734183311462
0.04057377049180328,1152.266013622284
0.04067622950819672,1161.5811109542847
0.04077868852459016,1170.8580493927002
0.040881147540983605,1180.0330996513367
0.040983606557377046,1189.0366315841675
0.041086065573770494,1197.8548765182495
0.041188524590163936,1206.4717054367065
0.04129098360655738,1214.731729030609
0.04139344262295082,1222.6443886756897
0.04149590163934426,1230.2289605140686
0.04159836065573771,1237.440204620361
0.04170081967213115,1244.2132115364072
0.04180327868852459,1250.5051016807556
0.04190573770491803,1256.290304660797
0.042008196721311473,1261.591637134552
0.042110655737704915,1266.3312077522278
0.04221311475409836,1270.5223917961118
0.042315573770491804,1274.0979194641113
0.042418032786885246,1277.169120311737
0.04252049180327869,1279.6022415161133
0.04262295081967213,1281.4291477203367
0.04272540983606558,1282.6333165168762
0.04282786885245902,1283.2127809524536
0.04293032786885246,1283.1313490867612
0.0430327868852459,1282.3961019515991
0.04313524590163934,1281.035757064819
0.043237704918032784,1279.0912270545957
0.04334016393442623,1276.5156984329221
0.04344262295081967,1273.2914686203003
0.043545081967213115,1269.5050835609436
0.043647540983606556,1265.1655912399292
0.04375,1260.269057750702
0.043852459016393446,1254.7918796539307
0.04395491803278689,1248.8465666770933
0.04405737704918033,1242.43665933609
0.04415983606557377,1235.5153441429138
0.04426229508196721,1228.2014250755308
0.04436475409836065,1220.5185055732725
0.0444672131147541,1212.4850749969482
0.04456967213114754,1204.1648626327515
0.04467213114754098,1195.5523610115051
0.044774590163934425,1186.6310477256775
0.044877049180327866,1177.5543451309202
0.044979508196721314,1168.360412120819
0.045081967213114756,1159.0590834617612
0.0451844262295082,1149.6649146080015
0.04528688524590164,1140.3022170066831
0.04538934426229508,1130.9662699699402
0.04549180327868853,1121.5245008468628
0.04559426229508197,1112.2369408607483
0.04569672131147541,1103.143322467804
0.04579918032786885,1094.258987903595
0.04590163934426229,1085.6342911720276
0.046004098360655735,1077.2499561309814
0.04610655737704918,1069.0953612327576
0.046209016393442624,1061.3270759582517
0.046311475409836066,1053.9565086364746
0.04641393442622951,1046.9152092933653
0.04651639344262295,1040.3239488601682
0.0466188524590164,1034.2543244361877
0.04672131147540984,1028.6516547203064
0.04682377049180328,1023.6351370811462
0.04692622950819672,1019.1056370735167
0.04702868852459016,1015.1552081108093
0.0471311475409836,1011.7905378341674
0.04723360655737705,1009.0517520904541
0.04733606557377049,1006.9199681282043
0.047438524590163934,1005.3987264633178
0.047540983606557376,1004.5474290847778
0.04764344262295082,1004.3094277381897
0.047745901639344265,1004.7299623489379
0.04784836065573771,1005.8058857917785
0.04795081967213115,1007.4691414833068
0.04805327868852459,1009.7980141639708
0.04815573770491803,1012.7433300018309
0.04825819672131147,1016.2389993667603
0.04836065573770492,1020.3397035598754
0.04846311475409836,1024.9663710594177
0.0485655737704918,1030.166208744049
0.048668032786885244,1035.9702944755554
0.048770491803278686,1042.2397613525388
0.048872950819672134,1048.9006519317627
0.048975409836065575,1056.046199798584
0.04907786885245902,1063.598120212555
0.04918032786885246,1071.4450836181638
0.0492827868852459,1079.6221017837524
0.04938524590163934,1088.1118655204773
0.04948770491803279,1096.8467116355896
0.04959016393442623,1105.7876944541931
0.04969262295081967,1114.8887872695923
0.04979508196721311,1124.141728878021
0.049897540983606554,1133.544945716858
0.05,1142.951703071594
0.050102459016393444,1152.3616075515745
0.050204918032786885,1161.7467284202576
0.05030737704918033,1171.0787415504456
0.05040983606557377,1180.230975151062
0.050512295081967216,1189.2089366912842
0.05061475409836066,1197.98823595047
0.0507172131147541,1206.5676927566528
0.05081967213114754,1214.8233890533447
0.05092213114754098,1222.7447032928467
0.05102459016393442,1230.3438305854797
0.05112704918032787,1237.5188827514646
0.05122950819672131,1244.2411422729492
0.051331967213114754,1250.5082488059998
0.051434426229508196,1256.3146948814392
0.05153688524590164,1261.6278290748594
0.051639344262295085,1266.3233399391174
0.051741803278688527,1270.487380027771
0.05184426229508197,1274.1022467613218
