{'sampling_frequency': 9760, 'signal_level': 10, 'signal_level_units': 'mVrms', 'signal_frequency': 105, 'signal_frequency_units': 'Hz'}
Time (s),Voltage (mV)
0.0,1201.066517829895
0.00010245901639344262,1192.3234105110168
0.00020491803278688525,1183.3556771278381
0.00030737704918032784,1174.2443561553955
0.0004098360655737705,1164.9898409843445
0.0005122950819672131,1155.6436657905579
0.0006147540983606557,1146.2522506713865
0.0007172131147540983,1136.8266105651853
0.000819672131147541,1127.4816155433653
0.0009221311475409836,1118.1547164916992
0.0010245901639344263,1108.9245915412903
0.001127049180327869,1099.910044670105
0.0012295081967213114,1091.068196296692
0.001331967213114754,1082.4938535690308
0.0014344262295081967,1074.187409877777
0.0015368852459016393,1066.1567330360413
0.001639344262295082,1058.4856152534485
0.0017418032786885246,1051.2271642684937
0.0018442622950819673,1044.386100769043
0.00194672131147541,1037.9935026168823
0.0020491803278688526,1032.1048378944397
0.002151639344262295,1026.73898935318
0.002254098360655738,1021.9278216362
0.0023565573770491805,1017.6681876182556
0.0024590163934426227,1013.93963098526
0.0025614754098360654,1010.8003735542297
0.002663934426229508,1008.277952671051
0.0027663934426229507,1006.3523054122925
0.0028688524590163933,1005.0851941108702
0.002971311475409836,1004.4809460639954
0.0030737704918032786,1004.5230388641357
0.0031762295081967213,1005.1866888999939
0.003278688524590164,1006.4640283584594
0.0033811475409836066,1008.3763003349304
0.0034836065573770492,1010.8523011207579
0.003586065573770492,1013.995885848999
0.0036885245901639345,1017.7287697792052
0.003790983606557377,1022.0706224441527
0.00389344262295082,1026.8715620040894
0.003995901639344262,1032.2122335433958
0.004098360655737705,1038.1119132041931
0.004200819672131147,1044.5170998573303
0.00430327868852459,1051.382553577423
0.004405737704918033,1058.6594939231873
0.004508196721311476,1066.3022875785828
0.004610655737704918,1074.308180809021
0.004713114754098361,1082.6220989227295
0.004815573770491803,1091.1940813064575
0.0049180327868852455,1100.0343561172485
0.0050204918032786885,1109.052050113678
0.005122950819672131,1118.2589650154114
0.005225409836065574,1127.5756359100342
0.005327868852459016,1136.925745010376
0.005430327868852459,1146.3372230529785
0.005532786885245901,1155.738866329193
0.0056352459016393444,1165.150737762451
0.005737704918032787,1174.410367012024
0.00584016393442623,1183.4697604179382
0.005942622950819672,1192.4013018608093
0.006045081967213115,1201.1070370674133
0.006147540983606557,1209.5566749572752
0.00625,1217.671537399292
0.0063524590163934426,1225.4299879074094
0.006454918032786886,1232.8741192817688
0.006557377049180328,1239.926826953888
0.00665983606557377,1246.5625405311584
0.006762295081967213,1252.6549816131592
0.006864754098360655,1258.2336544990537
0.0069672131147540985,1263.3477330207822
0.007069672131147541,1267.858350276947
0.007172131147540984,1271.86621427536
0.007274590163934426,1275.2773046493528
0.007377049180327869,1278.0310392379758
0.007479508196721311,1280.2560567855835
0.007581967213114754,1281.8500757217405
0.007684426229508197,1282.7816247940063
0.00778688524590164,1283.0664396286008
0.007889344262295083,1282.7635288238523
0.007991803278688524,1281.771397590637
0.008094262295081967,1280.191934108734
0.00819672131147541,1278.054642677307
0.008299180327868852,1275.2489805221555
0.008401639344262295,1271.8611001968384
0.008504098360655738,1267.9024100303648
0.00860655737704918,1263.371729850769
0.008709016393442622,1258.3170533180237
0.008811475409836065,1252.6860594749448
0.008913934426229508,1246.547985076904
0.009016393442622951,1239.9319410324097
0.009118852459016393,1232.891821861267
0.009221311475409836,1225.458312034607
0.009323770491803279,1217.6424264907837
0.009426229508196722,1209.485864639282
0.009528688524590163,1201.019310951233
0.009631147540983606,1192.2706961631775
0.00973360655737705,1183.339548110962
0.009836065573770491,1174.2833018302915
0.009938524590163934,1165.0279998779297
0.010040983606557377,1155.6346178054807
0.01014344262295082,1146.2573647499084
0.010245901639344262,1136.8651628494263
0.010348360655737705,1127.4792551994324
0.010450819672131148,1118.1535363197327
0.01055327868852459,1108.9521288871765
0.010655737704918032,1099.9053239822388
0.010758196721311475,1091.0776376724243
0.010860655737704918,1082.4922800064087
0.010963114754098361,1074.135875701904
0.011065573770491803,1066.1551594734192
0.011168032786885246,1058.487582206726
0.011270491803278689,1051.2051343917844
0.011372950819672132,1044.3506956100464
0.011475409836065573,1037.9584908485413
0.011577868852459016,1032.0666790008543
0.01168032786885246,1026.7004370689392
0.0117827868852459,1021.7913150787352
0.011885245901639344,1017.5198793411255
0.011987704918032787,1013.7952566146851
0.01209016393442623,1010.684323310852
0.012192622950819671,1008.1748843193054
0.012295081967213115,1006.32004737854
0.012397540983606558,1005.0690650939941
0.0125,1004.315721988678
0.012602459016393442,1004.2818903923035
0.012704918032786885,1004.9770116806029
0.012807377049180328,1006.26300573349
0.012909836065573771,1008.2051753997803
0.013012295081967213,1010.7653617858887
0.013114754098360656,1013.9010787010192
0.013217213114754099,1017.6445841789246
0.01331967213114754,1021.9648003578186
0.013422131147540983,1026.8322229385376
0.013524590163934426,1032.2267889976501
0.01362704918032787,1038.1158471107483
0.01372950819672131,1044.4793343544006
0.013831967213114754,1051.3231515884397
0.013934426229508197,1058.58553647995
0.01403688524590164,1066.2236094474792
0.014139344262295081,1074.2173075675964
0.014241803278688524,1082.5583696365354
0.014344262295081968,1091.1531686782837
0.01444672131147541,1100.0154733657837
0.014549180327868852,1109.0469360351562
0.014651639344262295,1118.2947635650635
0.014754098360655738,1127.6314973831177
0.01485655737704918,1137.0205521583557
0.014959016393442623,1146.450126171112
0.015061475409836066,1155.866718292236
0.015163934426229509,1165.2085661888123
0.01526639344262295,1174.4520664215088
0.015368852459016393,1183.5386037826538
0.015471311475409836,1192.4068093299863
0.01557377049180328,1201.0822534561157
0.01567622950819672,1209.5657229423523
0.015778688524590165,1217.8017497062683
0.015881147540983607,1225.5782961845398
0.015983606557377048,1232.9862356185913
0.016086065573770493,1240.0058984756467
0.016188524590163934,1246.5696215629575
0.016290983606557376,1252.6797652244568
0.01639344262295082,1258.3170533180237
0.016495901639344262,1263.424837589264
0.016598360655737703,1267.9523706436155
0.016700819672131148,1271.9476461410522
0.01680327868852459,1275.3528356552124
0.016905737704918034,1278.128206729889
0.017008196721311476,1280.349290370941
0.017110655737704917,1281.9960236549377
0.01721311475409836,1282.963764667511
0.017315573770491803,1283.3095550537107
0.017418032786885244,1282.9633712768552
0.01752049180327869,1281.9854021072388
0.01762295081967213,1280.3823351860046
0.017725409836065575,1278.2001972198484
0.017827868852459017,1275.391387939453
0.017930327868852458,1271.951973438263
0.018032786885245903,1267.958664894104
0.018135245901639344,1263.4083151817322
0.018237704918032786,1258.2993507385254
0.01834016393442623,1252.7175307273862
0.018442622950819672,1246.5723752975464
0.018545081967213113,1239.960265159607
0.018647540983606558,1232.9457163810728
0.01875,1225.4614591598508
0.018852459016393444,1217.632985115051
0.018954918032786885,1209.524416923523
0.019057377049180327,1201.056683063507
0.01915983606557377,1192.3206567764282
0.019262295081967213,1183.3836078643799
0.019364754098360654,1174.2750406265259
0.0194672131147541,1165.0110840797422
0.01956967213114754,1155.6436657905579
0.019672131147540982,1146.2491035461426
0.019774590163934427,1136.8580818176267
0.019877049180327868,1127.4587988853455
0.019979508196721313,1118.1649446487427
0.020081967213114754,1108.9938282966614
0.020184426229508196,1099.9847888946533
0.02028688524590164,1091.0874724388123
0.02038934426229508,1082.4883460998535
0.020491803278688523,1074.1586923599243
0.020594262295081968,1066.1347031593323
0.02069672131147541,1058.4454894065855
0.020799180327868854,1051.1760234832764
0.020901639344262295,1044.3503022193906
0.021004098360655737,1037.9490494728088
0.02110655737704918,1032.0710062980652
0.021209016393442623,1026.6610980033875
0.021311475409836064,1021.8101978302001
0.02141393442622951,1017.5045371055602
0.02151639344262295,1013.7688994407654
0.021618852459016392,1010.6359362602233
0.021721311475409837,1008.1280708312987
0.021823770491803278,1006.2256336212158
0.021926229508196723,1004.966390132904
0.022028688524590164,1004.3204426765442
0.022131147540983605,1004.2877912521362
0.02223360655737705,1004.9073815345764
0.02233606557377049,1006.1697721481322
0.022438524590163933,1008.0781102180481
0.022540983606557378,1010.5753540992737
0.02264344262295082,1013.7287735939025
0.022745901639344264,1017.4490690231323
0.022848360655737705,1021.763777732849
0.022950819672131147,1026.6213655471802
0.02305327868852459,1032.000982761383
0.023155737704918033,1037.9108905792236
0.023258196721311474,1044.298768043518
0.02336065573770492,1051.1244893074033
0.02346311475409836,1058.3782196044922
0.0235655737704918,1066.0481572151184
0.023668032786885247,1074.0804076194763
0.023770491803278688,1082.4297308921814
0.023872950819672133,1091.072130203247
0.023975409836065574,1099.9096512794495
0.024077868852459015,1108.8470935821533
0.02418032786885246,1118.0272579193115
0.0242827868852459,1127.313244342804
0.024385245901639343,1136.7046594619749
0.024487704918032788,1146.0693240165708
0.02459016393442623,1155.5150270462036
0.02469262295081967,1164.8851990699766
0.024795081967213115,1174.1436481475828
0.024897540983606557,1183.2502484321594
0.025,1192.171561717987
0.025102459016393443,1200.9024739265442
0.025204918032786884,1209.3725681304932
0.02530737704918033,1217.5251960754395
0.02540983606557377,1225.3194451332092
0.02551229508196721,1232.7686905860899
0.025614754098360656,1239.850115776062
0.025717213114754098,1246.4130520820618
0.025819672131147543,1252.5110006332395
0.025922131147540984,1258.1364870071409
0.026024590163934425,1263.2387638092039
0.02612704918032787,1267.8363204002378
0.02622950819672131,1271.865427494049
0.026331967213114753,1275.295007228851
0.026434426229508198,1278.1132578849792
0.02653688524590164,1280.3571581840513
0.02663934426229508,1281.9897294044492
0.026741803278688525,1282.9566836357117
0.026844262295081966,1283.2363843917847
0.02694672131147541,1282.9079031944275
0.027049180327868853,1282.0019245147705
0.027151639344262294,1280.4381966590881
0.02725409836065574,1278.232455253601
0.02735655737704918,1275.4444956779478
0.02745901639344262,1272.0503211021423
0.027561475409836066,1268.0605530738828
0.027663934426229508,1263.4893536567686
0.027766393442622953,1258.3827495574951
0.027868852459016394,1252.767491340637
0.027971311475409835,1246.6486930847168
0.02807377049180328,1240.043270587921
0.02817622950819672,1232.9988241195676
0.028278688524590163,1225.573968887329
0.028381147540983608,1217.7852272987366
0.02848360655737705,1209.6746921539304
0.02858606557377049,1201.2144327163696
0.028688524590163935,1192.5145983695984
0.028790983606557376,1183.6255431175232
0.02889344262295082,1174.510681629181
0.028995901639344263,1165.2522325515747
0.029098360655737704,1155.9627056121826
0.02920081967213115,1146.4965462684631
0.02930327868852459,1137.0823144912717
0.02940573770491803,1127.7286648750305
0.029508196721311476,1118.431270122528
0.029610655737704918,1109.299886226654
0.02971311475409836,1100.2644896507263
0.029815573770491804,1091.3333415985107
0.029918032786885245,1082.7542781829834
0.03002049180327869,1074.477732181549
0.03012295081967213,1066.441547870636
0.030225409836065573,1058.775544166565
0.030327868852459017,1051.5422701835632
0.03043032786885246,1044.6913719177246
0.0305327868852459,1038.2944464683533
0.030635245901639345,1032.3876857757568
0.030737704918032786,1027.0155429840086
0.03084016393442623,1022.1591353416442
0.030942622950819672,1017.8581953048706
0.031045081967213114,1014.1142964363097
0.03114754098360656,1010.9714984893799
0.03125,1008.4156394004822
0.03135245901639344,1006.4758300781249
0.03145491803278688,1005.1729202270508
0.03155737704918033,1004.5155644416808
0.03165983606557377,1004.509663581848
0.031762295081967214,1005.1552176475525
0.031864754098360655,1006.466782093048
0.031967213114754096,1008.388888835907
0.03206967213114754,1010.8755111694336
0.032172131147540986,1013.9585137367249
0.03227459016393443,1017.699658870697
0.03237704918032787,1022.075343132019
0.03247950819672131,1026.9502401351929
0.03258196721311475,1032.2720289230347
0.0326844262295082,1038.1669878959656
0.03278688524590164,1044.5949912071228
0.03288934426229508,1051.3770461082458
0.032991803278688524,1058.6067795753477
0.033094262295081965,1066.21652841568
0.033196721311475406,1074.2381572723386
0.033299180327868855,1082.5453877449036
0.033401639344262296,1091.1059617996216
0.03350409836065574,1099.9379754066467
0.03360655737704918,1108.9930415153503
0.03370901639344262,1118.1771397590637
0.03381147540983607,1127.4934172630308
0.03391393442622951,1136.8769645690918
0.03401639344262295,1146.2679862976072
0.03411885245901639,1155.6739568710325
0.034221311475409834,1165.0417685508728
0.03432377049180328,1174.3010044097898
0.03442622950819672,1183.4115386009216
0.034528688524590165,1192.284858226776
0.034631147540983606,1200.9756445884705
0.03473360655737705,1209.409153461456
0.03483606557377049,1217.5122141838074
0.03493852459016394,1225.2832531929016
0.03504098360655738,1232.719910144806
0.03514344262295082,1239.7915005683897
0.03524590163934426,1246.4032173156738
0.0353483606557377,1252.5448322296143
0.03545081967213115,1258.184480667114
0.03555327868852459,1263.283610343933
0.035655737704918034,1267.8300261497498
0.035758196721311475,1271.8134999275205
0.035860655737704916,1275.2336382865906
0.03596311475409836,1278.0558228492735
0.036065573770491806,1280.2505493164062
0.03616803278688525,1281.8957090377808
0.03627049180327869,1282.892560958862
0.03637295081967213,1283.1828832626343
0.03647540983606557,1282.8382730484007
0.03657786885245902,1281.900429725647
0.03668032786885246,1280.2989363670347
0.0367827868852459,1278.0861139297483
0.036885245901639344,1275.3264784812925
0.036987704918032785,1271.9523668289182
0.037090163934426226,1267.9602384567258
0.037192622950819675,1263.4102821350098
0.037295081967213116,1258.3087921142578
0.03739754098360656,1252.674651145935
0.0375,1246.595585346222
0.03760245901639344,1240.0259613990784
0.03770491803278689,1232.958698272705
0.03780737704918033,1225.5377769470215
0.03790983606557377,1217.7466750144958
0.03801229508196721,1209.619617462158
0.038114754098360654,1201.2010574340818
0.038217213114754095,1192.4685716629028
0.03831967213114754,1183.4910035133362
0.038422131147540985,1174.378502368927
0.038524590163934426,1165.0956630706785
0.03862704918032787,1155.7353258132935
0.03872950819672131,1146.3368296623228
0.03883196721311476,1136.9096159934998
0.0389344262295082,1127.526068687439
0.03903688524590164,1118.2290673255918
0.03913934426229508,1109.0182185173035
0.03924180327868852,1099.9902963638306
0.039344262295081964,1091.1216974258423
0.03944672131147541,1082.5402736663818
0.03954918032786885,1074.2023587226868
0.039651639344262295,1066.1685347557068
0.039754098360655736,1058.5328221321106
0.03985655737704918,1051.2240171432495
0.039959016393442626,1044.3660378456113
0.04006147540983607,1037.9262328147886
0.04016393442622951,1032.0005893707275
0.04026639344262295,1026.626479625702
0.04036885245901639,1021.8157052993774
0.04047131147540984,1017.531681060791
0.04057377049180328,1013.7952566146851
0.04067622950819672,1010.65993309021
0.04077868852459016,1008.1225633621216
0.040881147540983605,1006.2476634979247
0.040983606557377046,1004.9368858337402
0.041086065573770494,1004.2201280593872
0.041188524590163936,1004.2075395584106
0.04129098360655738,1004.8495531082153
0.04139344262295082,1006.1520695686339
0.04149590163934426,1008.0611944198607
0.04159836065573771,1010.5785012245178
0.04170081967213115,1013.6973023414611
0.04180327868852459,1017.441201210022
0.04190573770491803,1021.7114567756653
0.042008196721311473,1026.5238046646116
0.042110655737704915,1031.9136500358582
0.04221311475409836,1037.785005569458
0.042315573770491804,1044.127643108368
0.042418032786885246,1050.9549379348755
0.04252049180327869,1058.1976532936094
0.04262295081967213,1065.8262848854065
0.04272540983606558,1073.8506674766538
0.04282786885245902,1082.1752071380615
0.04293032786885246,1090.7621383666992
0.0430327868852459,1099.595332145691
0.04313524590163934,1108.6480379104612
0.043237704918032784,1117.8809165954588
0.04334016393442623,1127.2892475128174
0.04344262295081967,1136.6845965385437
0.043545081967213115,1146.0720777511597
0.043647540983606556,1155.4505109786987
0.04375,1164.8478269577024
0.043852459016393446,1174.1082429885862
0.04395491803278689,1183.2451343536377
0.04405737704918033,1192.1373367309568
0.04415983606557377,1200.870609283447
0.04426229508196721,1209.3407034873962
0.04436475409836065,1217.4980521202087
0.0444672131147541,1225.3068566322327
0.04456967213114754,1232.7305316925049
0.04467213114754098,1239.792287349701
0.044774590163934425,1246.3870882987976
0.044877049180327866,1252.5110006332395
0.044979508196721314,1258.131766319275
0.045081967213114756,1263.2639408111572
0.0451844262295082,1267.8276658058164
0.04528688524590164,1271.8618869781492
0.04538934426229508,1275.2540946006775
0.04549180327868853,1278.1152248382568
0.04559426229508197,1280.315852165222
0.04569672131147541,1281.953144073486
0.04579918032786885,1282.9476356506345
0.04590163934426229,1283.2690358161924
0.046004098360655735,1282.9417347908018
0.04610655737704918,1282.0302486419678
0.046209016393442624,1280.4322957992554
0.046311475409836066,1278.3060193061829
0.04641393442622951,1275.5113720893858
0.04651639344262295,1272.0381259918213
0.0466188524590164,1268.0389165878294
0.04672131147540984,1263.5196447372437
0.04682377049180328,1258.4342837333677
0.04692622950819672,1252.8060436248777
0.04702868852459016,1246.7073082923887
0.0471311475409836,1240.1203751564026
0.04723360655737705,1233.0995321273804
0.04733606557377049,1225.6357312202454
0.047438524590163934,1217.8080439567564
0.047540983606557376,1209.694755077362
0.04764344262295082,1201.292324066162
0.047745901639344265,1192.582654953003
0.04784836065573771,1183.6967468261719
0.04795081967213115,1174.6707916259763
0.04805327868852459,1165.425717830658
0.04815573770491803,1156.061053276062
0.04825819672131147,1146.6460347175598
0.04836065573770492,1137.2357368469236
0.04846311475409836,1127.840781211853
0.0485655737704918,1118.531584739685
0.048668032786885244,1109.3262434005737
0.048770491803278686,1100.2542614936829
0.048872950819672134,1091.3514375686646
0.048975409836065575,1082.794404029846
0.04907786885245902,1074.5524764060974
0.04918032786885246,1066.528880596161
0.0492827868852459,1058.812129497528
0.04938524590163934,1051.568627357483
0.04948770491803279,1044.7531342506409
0.04959016393442623,1038.2818579673767
0.04969262295081967,1032.3994874954224
0.04979508196721311,1026.974630355835
0.049897540983606554,1022.1076011657715
0.05,1017.7964329719542
0.050102459016393444,1014.0560746192932
0.050204918032786885,1010.8857393264769
0.05030737704918033,1008.3747267723082
0.05040983606557377,1006.4298033714294
0.050512295081967216,1005.1209926605225
0.05061475409836066,1004.4604897499083
0.0507172131147541,1004.4715046882628
0.05081967213114754,1005.1544308662415
0.05092213114754098,1006.4294099807738
0.05102459016393442,1008.2830667495728
0.05112704918032787,1010.816502571106
0.05122950819672131,1013.92822265625
0.051331967213114754,1017.6701545715332
0.051434426229508196,1021.9675540924071
0.05153688524590164,1026.7924904823303
0.051639344262295085,1032.1237206459043
0.051741803278688527,1038.0096316337585
0.05184426229508197,1044.3994760513303
