{'sampling_frequency': 9760, 'signal_level': 100, 'signal_level_units': 'mVrms', 'signal_frequency': 205, 'signal_frequency_units': 'Hz'}
Time (s),Voltage (mV)
0.0,447.32176065444946
0.00010245901639344262,612.2940659523009
0.00020491803278688525,786.5134119987487
0.00030737704918032784,967.1525001525878
0.0004098360655737705,1150.7282495498657
0.0005122950819672131,1334.2304348945618
0.0006147540983606557,1514.3530011177063
0.0007172131147540983,1687.9861950874329
0.000819672131147541,1852.1996498107908
0.0009221311475409836,2004.0838479995728
0.0010245901639344263,2141.336667537689
0.001127049180327869,2260.986828804016
0.0012295081967213114,2361.243617534637
0.001331967213114754,2440.2761936187744
0.0014344262295081967,2497.108948230743
0.0015368852459016393,2530.7528972625732
0.001639344262295082,2540.2831792831416
0.0017418032786885246,2525.2733588218684
0.0018442622950819673,2486.6978645324702
0.00194672131147541,2424.9245166778564
0.0020491803278688526,2341.092574596405
0.002151639344262295,2236.4305973052974
0.002254098360655738,2112.6698970794673
0.0023565573770491805,1971.9914317131042
0.0024590163934426227,1817.187488079071
0.0025614754098360654,1650.5424857139585
0.002663934426229508,1475.1968622207642
0.0027663934426229507,1293.9342498779297
0.0028688524590163933,1110.2070450782776
0.002971311475409836,926.994001865387
0.0030737704918032786,747.4953532218933
0.0031762295081967213,575.0344634056091
0.003278688524590164,412.5298976898193
0.0033811475409836066,262.5308275222778
0.0034836065573770492,128.12930345535278
0.003586065573770492,28.903591632843018
0.0036885245901639345,1.782059669494629
0.003790983606557377,0.8701801300048827
0.00389344262295082,0.6003141403198242
0.003995901639344262,0.36270618438720703
0.004098360655737705,0.30409097671508784
0.004200819672131147,0.4594802856445312
0.00430327868852459,0.710463523864746
0.004405737704918033,0.9689211845397949
0.004508196721311476,8.03185701370239
0.004610655737704918,77.8988242149353
0.004713114754098361,204.4022440910339
0.004815573770491803,348.19833040237427
0.0049180327868852455,505.6840181350708
0.0050204918032786885,674.364423751831
0.005122950819672131,851.3099670410156
0.005225409836065574,1033.4494471549986
0.005327868852459016,1217.268705368042
0.005430327868852459,1400.0061392784119
0.005532786885245901,1578.1027436256406
0.0056352459016393444,1748.7560033798218
0.005737704918032787,1908.742082118988
0.00584016393442623,2055.4559469223022
0.005942622950819672,2186.6556644439697
0.006045081967213115,2299.6291995048523
0.006147540983606557,2392.399764060974
0.00625,2463.5637402534485
0.0063524590163934426,2511.922860145569
0.006454918032786886,2536.805212497711
0.006557377049180328,2537.5015139579773
0.00665983606557377,2513.8249039649963
0.006762295081967213,2466.682541370392
0.006864754098360655,2396.8981862068176
0.0069672131147540985,2305.3199887275696
0.007069672131147541,2193.4282779693604
0.007172131147540984,2063.2808804512024
0.007274590163934426,1917.2888875007627
0.007377049180327869,1757.8956484794617
0.007479508196721311,1587.7061963081358
0.007581967213114754,1409.9168300628662
0.007684426229508197,1227.3229837417603
0.00778688524590164,1043.4392094612122
0.007889344262295083,861.0971331596375
0.007991803278688524,683.7035179138184
0.008094262295081967,514.5663857460022
0.00819672131147541,356.3556790351867
0.008299180327868852,211.6925597190857
0.008401639344262295,85.31030416488647
0.008504098360655738,11.610925197601318
0.00860655737704918,1.084578037261963
0.008709016393442622,0.7714390754699706
0.008811475409836065,0.4913449287414551
0.008913934426229508,0.3036975860595703
0.009016393442622951,0.33477544784545893
0.009118852459016393,0.5562543869018555
0.009221311475409836,0.8194327354431152
0.009323770491803279,1.201021671295166
0.009426229508196722,22.954344749450684
0.009528688524590163,120.75637578964232
0.009631147540983606,254.79047298431396
0.00973360655737705,403.939425945282
0.009836065573770491,565.8920645713806
0.009938524590163934,737.7278566360474
0.010040983606557377,916.8909430503844
0.01014344262295082,1100.0477313995361
0.010245901639344262,1283.8732838630676
0.010348360655737705,1465.3137087821958
0.010450819672131148,1640.9457206726072
0.01055327868852459,1808.1438302993772
0.010655737704918032,1963.692855834961
0.010758196721311475,2105.2950024604797
0.010860655737704918,2230.060029029846
0.010963114754098361,2335.8144521713257
0.011065573770491803,2420.885574817657
0.011168032786885246,2483.8017225265503
0.011270491803278689,2523.808372020721
0.011372950819672132,2540.0786161422725
0.011475409836065573,2531.845736503601
0.011577868852459016,2499.5003700256343
0.01168032786885246,2444.1184401512146
0.0117827868852459,2366.197979450226
0.011885245901639344,2267.0918583869934
0.011987704918032787,2148.4609723091125
0.01209016393442623,2012.0610237121582
0.012192622950819671,1860.873520374298
0.012295081967213115,1697.2348093986511
0.012397540983606558,1524.0319848060606
0.0125,1344.14427280426
0.012602459016393442,1160.7034564018247
0.012704918032786885,976.9935607910156
0.012807377049180328,796.021270751953
0.012909836065573771,621.3609337806702
0.013012295081967213,455.92364072799677
0.013114754098360656,302.25462913513184
0.013217213114754099,163.26302289962769
0.01331967213114754,49.41694736480712
0.013422131147540983,3.848147392272949
0.013524590163934426,0.9500384330749512
0.01362704918032787,0.6734848022460936
0.01372950819672131,0.4398107528686523
0.013831967213114754,0.297403335571289
0.013934426229508197,0.40204524993896484
0.01403688524590164,0.6549954414367676
0.014139344262295081,0.8973240852355956
0.014241803278688524,3.2061338424682617
0.014344262295081968,50.33079385757446
0.01444672131147541,167.94712543487546
0.014549180327868852,307.6224446296692
0.014651639344262295,461.5762710571289
0.014754098360655738,627.4659633636475
0.01485655737704918,802.5082826614379
0.014959016393442623,983.584427833557
0.015061475409836066,1167.2246932983398
0.015163934426229509,1350.5518198013303
0.01526639344262295,1530.2550315856934
0.015368852459016393,1703.1789422035217
0.015471311475409836,1866.4026260375977
0.01557377049180328,2017.0724272727964
0.01567622950819672,2152.748930454254
0.015778688524590165,2270.790123939514
0.015881147540983607,2369.3513989448543
0.015983606557377048,2446.5362191200256
0.016086065573770493,2501.266300678253
0.016188524590163934,2532.602226734161
0.016290983606557376,2539.865005016327
0.01639344262295082,2522.8689551353455
0.016495901639344262,2482.0755243301387
0.016598360655737703,2418.4001326560974
0.016700819672131148,2332.723581790924
0.01680327868852459,2226.2996077537537
0.016905737704918034,2100.858736038208
0.017008196721311476,1958.8207125663757
0.017110655737704917,1802.908980846405
0.01721311475409836,1635.4429721832275
0.017315573770491803,1459.4868063926697
0.017418032786885244,1277.785563468933
0.01752049180327869,1093.877398967743
0.01762295081967213,910.8205318450927
0.017725409836065575,731.8246364593506
0.017827868852459017,560.1544618606567
0.017930327868852458,398.5983610153198
0.018032786885245903,249.9962210655212
0.018135245901639344,117.29571819305419
0.018237704918032786,23.754501342773434
0.01834016393442623,1.476788520812988
0.018442622950819672,0.8418560028076172
0.018545081967213113,0.5837917327880859
0.018647540983606558,0.35444498062133784
0.01875,0.2993702888488769
0.018852459016393444,0.47600269317626953
0.018954918032786885,0.7564902305603027
0.019057377049180327,1.0153412818908691
0.01915983606557377,10.686850547790526
0.019262295081967213,88.02469968795776
0.019364754098360654,216.83535575866696
0.0194672131147541,362.0413541793823
0.01956967213114754,520.6458449363707
0.019672131147540982,690.1130318641661
0.019774590163934427,867.655348777771
0.019877049180327868,1050.070595741272
0.019979508196721313,1233.9524030685425
0.020081967213114754,1416.400694847107
0.020184426229508196,1593.9367175102232
0.02028688524590164,1763.7115359306335
0.02038934426229508,1922.6067423820493
0.020491803278688523,2068.2419300079346
0.020594262295081968,2197.892475128174
0.02069672131147541,2308.9612126350403
0.020799180327868854,2399.6633291244507
0.020901639344262295,2468.7718391418457
0.021004098360655737,2515.2533054351807
0.02110655737704918,2537.984204292297
0.021209016393442623,2536.545181274414
0.021311475409836064,2510.7297062873836
0.02141393442622951,2461.4630341529846
0.02151639344262295,2389.615738391876
0.021618852459016392,2296.1862444877625
0.021721311475409837,2182.5982332229614
0.021823770491803278,2050.8591771125793
0.021926229508196723,1903.5032987594604
0.022028688524590164,1743.0109262466428
0.022131147540983605,1572.0641970634458
0.02223360655737705,1393.7012672424316
0.02233606557377049,1210.8139514923096
0.022438524590163933,1026.9250631332395
0.022540983606557378,844.9138283729552
0.02264344262295082,668.165373802185
0.022745901639344264,499.8193502426147
0.022848360655737705,342.70423650741577
0.022950819672131147,199.50335025787354
0.02305327868852459,75.77372789382935
0.023155737704918033,8.98897647857666
0.023258196721311474,1.0511398315429688
0.02336065573770492,0.7509827613830566
0.02346311475409836,0.47600269317626953
0.0235655737704918,0.3036975860595703
0.023668032786885247,0.35680532455444336
0.023770491803278688,0.5755305290222168
0.023872950819672133,0.828874111175537
0.023975409836065574,1.4079451560974119
0.024077868852459015,28.519248962402344
0.02418032786885246,132.11946487426758
0.0242827868852459,267.55324602127075
0.024385245901639343,417.8099870681762
0.024487704918032788,580.7453155517578
0.02459016393442623,753.5220980644226
0.02469262295081967,933.2858920097351
0.024795081967213115,1116.5787935256956
0.024897540983606557,1300.3453373908994
0.025,1481.3762426376343
0.025102459016393443,1656.3414573669434
0.025204918032786884,1822.5155711174011
0.02530737704918033,1976.8403649330137
0.02540983606557377,2116.8433785438538
0.02551229508196721,2239.879846572876
0.025614754098360656,2343.8817143440247
0.025717213114754098,2427.1695971488953
0.025819672131147543,2488.2309079170227
0.025922131147540984,2526.023554801941
0.026024590163934425,2539.9240136146545
0.02612704918032787,2529.5381069183345
0.02622950819672131,2495.2777147293086
0.026331967213114753,2437.8222227096558
0.026434426229508198,2357.9009771347046
0.02653688524590164,2256.9573283195496
0.02663934426229508,2136.497175693512
0.026741803278688525,1998.688495159149
0.026844262295081966,1846.3019371032715
0.02694672131147541,1681.6919445991516
0.027049180327868853,1507.7279090881345
0.027151639344262294,1327.4291038513181
0.02725409836065574,1143.863582611084
0.02735655737704918,960.3429079055785
0.02745901639344262,779.884386062622
0.027561475409836066,605.9057950973511
0.027663934426229508,441.3312077522278
0.027766393442622953,288.9564514160156
0.027868852459016394,151.43219232559204
0.027971311475409835,41.89413785934448
0.02807377049180328,2.9028296470642085
0.02817622950819672,0.9331226348876952
0.028278688524590163,0.6601095199584961
0.028381147540983608,0.4036188125610351
0.02848360655737705,0.29582977294921875
0.02858606557377049,0.42564868927001953
0.028688524590163935,0.6734848022460936
0.028790983606557376,0.9295821189880371
0.02889344262295082,4.335558414459228
0.028995901639344263,58.61009359359741
0.029098360655737704,179.49628829956055
0.02920081967213115,320.5516219139099
0.02930327868852459,475.8665800094604
0.02940573770491803,642.6705121994019
0.029508196721311476,818.3025240898132
0.029610655737704918,999.7197389602661
0.02971311475409836,1183.5193276405334
0.029815573770491804,1366.7327642440794
0.029918032786885245,1545.8376288414
0.03002049180327869,1718.1163787841795
0.03012295081967213,1880.4144144058225
0.030225409836065573,2029.8104166984556
0.030327868852459017,2164.043962955475
0.03043032786885246,2280.3687930107117
0.0305327868852459,2376.8521785736084
0.030635245901639345,2452.0429015159607
0.030737704918032786,2504.8245191574097
0.03084016393442623,2534.2328310012813
0.030942622950819672,2539.439749717712
0.031045081967213114,2520.151805877685
0.03114754098360656,2477.205741405487
0.03125,2411.3690614700317
0.03135245901639344,2323.643732070923
0.03145491803278688,2215.5136227607727
0.03155737704918033,2088.549542427063
0.03165983606557377,1945.1724171638486
0.031762295081967214,1787.9774451255796
0.031864754098360655,1619.5586442947388
0.031967213114754096,1443.0147528648376
0.03206967213114754,1261.0058784484863
0.032172131147540986,1077.1441340446472
0.03227459016393443,894.3665742874146
0.03237704918032787,715.9525036811827
0.03247950819672131,545.1277256011963
0.03258196721311475,384.7183585166931
0.0326844262295082,237.38805055618283
0.03278688524590164,106.70918226242065
0.03288934426229508,19.208085536956787
0.032991803278688524,1.299762725830078
0.033094262295081965,0.8398890495300293
0.033196721311475406,0.5570411682128906
0.033299180327868855,0.33477544784545893
0.033401639344262296,0.3190398216247558
0.03350409836065574,0.5039334297180176
0.03360655737704918,0.7706522941589355
0.03370901639344262,1.0291099548339844
0.03381147540983607,14.007067680358885
0.03391393442622951,98.70486259460448
0.03401639344262295,229.33809757232666
0.03411885245901639,375.7545590400695
0.034221311475409834,535.5183720588684
0.03432377049180328,705.8824896812439
0.03442622950819672,884.0054512023925
0.034528688524590165,1066.6571259498596
0.034631147540983606,1250.5534887313843
0.03473360655737705,1432.7216863632202
0.03483606557377049,1609.658968448639
0.03493852459016394,1778.605306148529
0.03504098360655738,1936.3632202148438
0.03514344262295082,2080.5908560752864
0.03524590163934426,2208.6084365844727
0.0353483606557377,2318.0556178092957
0.03545081967213115,2406.928861141205
0.03555327868852459,2474.1125106811523
0.035655737704918034,2518.31191778183
0.035758196721311475,2538.8846755027766
0.035860655737704916,2535.131728649139
0.03596311475409836,2507.225775718689
0.036065573770491806,2456.029522418976
0.03616803278688525,2382.312047481537
0.03627049180327869,2286.9750022888184
0.03637295081967213,2171.646237373352
0.03647540983606557,2038.3462071418762
0.03657786885245902,1889.6103143692017
0.03668032786885246,1728.140366077423
0.0367827868852459,1556.4159035682676
0.036885245901639344,1377.4943590164185
0.036987704918032785,1194.3623542785645
0.037090163934426226,1010.5627655982971
0.037192622950819675,828.9240717887878
0.037295081967213116,652.8459548950195
0.03739754098360656,485.42675971984863
0.0375,329.3084979057312
0.03760245901639344,187.38967180252075
0.03770491803278689,66.5255069732666
0.03780737704918033,6.8328022956848145
0.03790983606557377,1.0157346725463867
0.03801229508196721,0.7230520248413086
0.038114754098360654,0.44728517532348633
0.038217213114754095,0.2911090850830078
0.03831967213114754,0.36939382553100586
0.038422131147540985,0.6011009216308594
0.038524590163934426,0.8469700813293457
0.03862704918032787,1.7828464508056638
0.03872950819672131,34.861886501312256
0.03883196721311476,143.60332489013672
0.0389344262295082,280.4879307746887
0.03903688524590164,432.1309804916382
0.03913934426229508,596.0611939430237
0.03924180327868852,769.5747971534729
0.039344262295081964,949.7292280197142
0.03944672131147541,1133.2085967063904
0.03954918032786885,1316.8492555618286
0.039651639344262295,1497.4733948707578
0.039754098360655736,1671.873700618744
0.03985655737704918,1837.040340900421
0.039959016393442626,1990.217614173889
0.04006147540983607,2128.990888595581
0.04016393442622951,2250.49706697464
0.04026639344262295,2352.49342918396
0.04036885245901639,2433.6408734321594
0.04047131147540984,2492.483067512512
0.04057377049180328,2528.3418059349056
0.04067622950819672,2540.1852250099178
0.04077868852459016,2527.6628136634827
0.040881147540983605,2491.0515189170837
0.040983606557377046,2431.415069103241
0.041086065573770494,2349.67793226242
0.041188524590163936,2246.948289871216
0.04129098360655738,2125.037705898285
0.04139344262295082,1985.8596324920654
0.04149590163934426,1832.314932346344
0.04159836065573771,1666.6966795921326
0.04170081967213115,1491.9973969459531
0.04180327868852459,1311.084508895874
0.04190573770491803,1127.3533701896667
0.042008196721311473,943.9235687255859
0.042110655737704915,763.8899087905884
0.04221311475409836,590.6733155250548
0.042315573770491804,427.07669734954834
0.042418032786885246,275.7766842842102
0.04252049180327869,139.737868309021
0.04262295081967213,35.146307945251465
0.04272540983606558,2.250981330871582
0.04282786885245902,0.8957505226135253
0.04293032786885246,0.6404399871826172
0.0430327868852459,0.3839492797851562
0.04313524590163934,0.2808809280395508
0.043237704918032784,0.4449248313903808
0.04334016393442623,0.707709789276123
0.04344262295081967,0.9516119956970215
0.043545081967213115,5.891418457031249
0.043647540983606556,67.70056486129761
0.04375,191.5269613265991
0.043852459016393446,333.89071226119995
0.04395491803278689,490.3048038482666
0.04405737704918033,658.0316305160521
0.04415983606557377,834.3961358070374
0.04426229508196721,1016.212248802185
0.04436475409836065,1200.005543231964
0.0444672131147541,1382.9534411430357
0.04456967213114754,1561.5567326545713
0.04467213114754098,1732.9975605010986
0.044774590163934425,1894.1130638122559
0.044877049180327866,2042.3465967178345
0.044979508196721314,2175.1277446746826
0.045081967213114756,2289.821183681488
0.0451844262295082,2384.596073627472
0.04528688524590164,2457.8013539314265
0.04538934426229508,2508.334350585937
0.04549180327868853,2535.5916023254395
0.04559426229508197,2538.5695695877075
0.04569672131147541,2517.14551448822
0.04579918032786885,2472.1282482147217
0.04590163934426229,2404.2982578277583
0.046004098360655735,2314.8353219032283
0.04610655737704918,2204.8625707626343
0.046209016393442624,2076.326501369476
0.046311475409836066,1931.6102743148801
0.04641393442622951,1773.3787178993223
0.04651639344262295,1604.1094064712524
0.0466188524590164,1426.9054055213928
0.04672131147540984,1244.6357131004333
0.04682377049180328,1060.7267618179321
0.04692622950819672,878.1093120574951
0.04702868852459016,700.1830458641052
0.0471311475409836,530.082893371582
0.04723360655737705,370.6550359725952
0.04733606557377049,224.64061975479123
0.047438524590163934,95.95938920974731
0.047540983606557376,15.123903751373291
0.04764344262295082,1.1675834655761719
0.047745901639344265,0.808417797088623
0.04784836065573771,0.5216360092163086
0.04795081967213115,0.3253340721130371
0.04805327868852459,0.3229737281799316
0.04815573770491803,0.518488883972168
0.04825819672131147,0.7741928100585938
0.04836065573770492,1.0719895362854004
0.04846311475409836,18.016898632049557
0.0485655737704918,109.22688245773315
0.048668032786885244,241.57687425613403
0.048770491803278686,389.3635153770447
0.048872950819672134,550.1824021339417
0.048975409836065575,721.3372349739075
0.04907786885245902,900.0809669494628
0.04918032786885246,1082.9549074172974
0.0492827868852459,1266.7714118957517
0.04938524590163934,1448.6441731452942
0.04948770491803279,1624.9327540397642
0.04959016393442623,1793.030548095703
0.04969262295081967,1949.6405482292173
0.04979508196721311,2092.6101207733154
0.049897540983606554,2219.083249568939
0.05,2326.715719699859
0.050102459016393444,2413.688492774963
0.050204918032786885,2478.8792252540584
0.05030737704918033,2520.979106426239
0.05040983606557377,2539.3972635269165
0.050512295081967216,2533.582162857055
0.05061475409836066,2503.615236282348
0.0507172131147541,2450.3674507141113
0.05081967213114754,2374.5158314704895
0.05092213114754098,2277.277135848999
0.05102459016393442,2160.3453040122986
0.05112704918032787,2025.5901217460632
0.05122950819672131,1875.6634354591367
0.051331967213114754,1713.1211042404173
0.051434426229508196,1540.5905842781067
0.05153688524590164,1361.2209677696228
0.051639344262295085,1177.9162645339964
0.051741803278688527,994.1375255584717
0.05184426229508197,812.7887606620789
0.05194672131147541,637.3723268508911
0.05204918032786885,470.93896865844727
