{'sampling_frequency': 9760, 'signal_level': 100, 'signal_level_units': 'mVrms', 'signal_frequency': 205, 'signal_frequency_units': 'Hz'}
Time (s),Voltage (mV)
0.0,0.6011009216308594
0.00010245901639344262,0.3749012947082519
0.00020491803278688525,0.29386281967163086
0.00030737704918032784,0.435483455657959
0.0004098360655737705,0.7143974304199218
0.0005122950819672131,0.977182388305664
0.0006147540983606557,7.417774200439452
0.0007172131147540983,75.10968446731567
0.000819672131147541,200.95614194869992
0.0009221311475409836,344.3989634513855
0.0010245901639344263,501.63130760192865
0.001127049180327869,670.0268983840942
0.0012295081967213114,846.8371152877808
0.001331967213114754,1028.9282083511353
0.0014344262295081967,1212.759268283844
0.0015368852459016393,1395.5679059028625
0.001639344262295082,1573.8057374954221
0.0017418032786885246,1744.621467590332
0.0018442622950819673,1905.0430297851562
0.00194672131147541,2052.2789239883423
0.0020491803278688526,2183.816957473755
0.002151639344262295,2297.0894694328304
0.002254098360655738,2390.3769493103027
0.0023565573770491805,2462.0165348052974
0.0024590163934426227,2510.9551191329956
0.0025614754098360654,2536.4554882049556
0.002663934426229508,2537.765085697174
0.0027663934426229507,2514.6883964538574
0.0028688524590163933,2468.1628704071045
0.002971311475409836,2398.951292037964
0.0030737704918032786,2307.956099510193
0.0031762295081967213,2196.5325236320496
0.003278688524590164,2066.693937778473
0.0033811475409836066,1921.0123300552366
0.0034836065573770492,1761.982190608978
0.003586065573770492,1592.043328285217
0.0036885245901639345,1414.4203662872314
0.003790983606557377,1231.9232940673828
0.00389344262295082,1048.0536818504333
0.003995901639344262,865.68603515625
0.004098360655737705,688.1460785865783
0.004200819672131147,518.7493085861206
0.00430327868852459,360.19910573959345
0.004405737704918033,215.2220606803894
0.004508196721311476,88.17694187164305
0.004610655737704918,12.510609626770018
0.004713114754098361,1.1195898056030273
0.004815573770491803,0.7718324661254882
0.0049180327868852455,0.5047202110290527
0.0050204918032786885,0.30487775802612305
0.005122950819672131,0.33202171325683594
0.005225409836065574,0.536191463470459
0.005327868852459016,0.8025169372558594
0.005430327868852459,1.1691570281982422
0.005532786885245901,21.639633178710938
0.0056352459016393444,117.7548050880432
0.005737704918032787,251.39590501785275
0.00584016393442623,400.1349449157714
0.005942622950819672,561.7665767669678
0.006045081967213115,733.5689306259154
0.006147540983606557,912.6446843147278
0.00625,1095.7133531570432
0.0063524590163934426,1279.4952392578125
0.006454918032786886,1461.0615491867065
0.006557377049180328,1636.9646072387693
0.00665983606557377,1804.3987512588499
0.006762295081967213,1960.1747632026672
0.006864754098360655,2102.06880569458
0.0069672131147540985,2227.3153424263
0.007069672131147541,2333.5099697113037
0.007172131147540984,2419.0028071403503
0.007274590163934426,2482.509434223175
0.007377049180327869,2523.044013977051
0.007479508196721311,2539.751708507538
0.007581967213114754,2532.200574874878
0.007684426229508197,2500.566065311432
0.00778688524590164,2445.7537651062007
0.007889344262295083,2368.336057662964
0.007991803278688524,2269.5816278457637
0.008094262295081967,2151.3523936271667
0.00819672131147541,2015.5271887779236
0.008299180327868852,1864.7102594375608
0.008401639344262295,1701.3563632965088
0.008504098360655738,1528.2377243041992
0.00860655737704918,1348.4381318092344
0.008709016393442622,1164.991021156311
0.008811475409836065,981.3181042671202
0.008913934426229508,800.2820849418639
0.009016393442622951,625.3310322761535
0.009118852459016393,459.63134765624994
0.009221311475409836,305.760133266449
0.009323770491803279,166.45106077194214
0.009426229508196722,51.678943634033196
0.009528688524590163,4.169940948486328
0.009631147540983606,0.9720683097839354
0.00973360655737705,0.6730914115905761
0.009836065573770491,0.40440559387207026
0.009938524590163934,0.28953552246093744
0.010040983606557377,0.3973245620727539
0.01014344262295082,0.637686252593994
0.010245901639344262,0.9067654609680176
0.010348360655737705,2.915811538696289
0.010450819672131148,47.89885282516479
0.01055327868852459,164.45263624191284
0.010655737704918032,303.73692512512207
0.010758196721311475,457.4515700340271
0.010860655737704918,623.0615615844725
0.010963114754098361,797.8237867355347
0.011065573770491803,978.7638187408447
0.011168032786885246,1162.4339818954468
0.011270491803278689,1345.8614230155943
0.011372950819672132,1525.6712436676025
0.011475409836065573,1698.870527744293
0.011577868852459016,1862.332212924957
0.01168032786885246,2013.2962703704834
0.0117827868852459,2149.4165182113643
0.011885245901639344,2267.84166097641
0.011987704918032787,2366.803801059723
0.01209016393442623,2444.520878791809
0.012192622950819671,2499.8241305351257
0.012295081967213115,2531.7934155464172
0.012397540983606558,2539.7304654121394
0.0125,2523.2753276824947
0.012602459016393442,2483.1058144569392
0.012704918032786885,2419.955599308014
0.012807377049180328,2334.6862077713013
0.012909836065573771,2228.7071585655212
0.013012295081967213,2103.7725806236267
0.013114754098360656,1962.0118975639343
0.013217213114754099,1806.4329743385315
0.01331967213114754,1639.1613006591797
0.013422131147540983,1463.4179592132568
0.013524590163934426,1281.8650245666504
0.01362704918032787,1098.0229496955872
0.01372950819672131,914.9503469467163
0.013831967213114754,735.8195185661316
0.013934426229508197,563.934552669525
0.01403688524590164,402.1180272102356
0.014139344262295081,253.1240701675415
0.014241803278688524,120.03096342086792
0.014344262295081968,24.97007846832275
0.01444672131147541,1.54799222946167
0.014549180327868852,0.8571982383728027
0.014651639344262295,0.5759239196777344
0.014754098360655738,0.35877227783203125
0.01485655737704918,0.3166794776916504
0.014959016393442623,0.4752159118652343
0.015061475409836066,0.7336735725402832
0.015163934426229509,1.0133743286132812
0.01526639344262295,9.869778156280518
0.015368852459016393,85.16042232513426
0.015471311475409836,213.24015855789182
0.01557377049180328,358.0157876014709
0.01567622950819672,516.5018677711487
0.015778688524590165,685.7251524925232
0.015881147540983607,863.135290145874
0.015983606557377048,1045.4325199127197
0.016086065573770493,1229.229748249054
0.016188524590163934,1411.7102980613706
0.016290983606557376,1589.396595954895
0.01639344262295082,1759.4066619873045
0.016495901639344262,1918.627595901489
0.016598360655737703,2064.625883102417
0.016700819672131148,2194.691061973572
0.01680327868852459,2306.2700271606445
0.016905737704918034,2397.5968480110164
0.017008196721311476,2467.2301411628723
0.017110655737704917,2514.1325354576106
0.01721311475409836,2537.611663341522
0.017315573770491803,2536.753284931183
0.017418032786885244,2511.5499258041377
0.01752049180327869,2462.883174419403
0.01762295081967213,2391.3730144500732
0.017725409836065575,2298.3707427978516
0.017827868852459017,2185.3138089179993
0.017930327868852458,2054.0900945663448
0.018032786885245903,1907.1272134780884
0.018135245901639344,1746.9881057739256
0.018237704918032786,1576.249086856842
0.01834016393442623,1398.0061411857605
0.018442622950819672,1215.193963050842
0.018545081967213113,1031.325924396515
0.018647540983606558,849.2879390716553
0.01875,672.4254012107849
0.018852459016393444,503.877568244934
0.018954918032786885,346.48590087890625
0.019057377049180327,202.89123058319092
0.01915983606557377,78.37797403335571
0.019262295081967213,9.672296047210692
0.019364754098360654,1.047205924987793
0.0194672131147541,0.7545232772827148
0.01956967213114754,0.485837459564209
0.019672131147540982,0.30645132064819336
0.019774590163934427,0.3595590591430664
0.019877049180327868,0.5845785140991211
0.019979508196721313,0.8383154869079589
0.020081967213114754,1.3532638549804688
0.020184426229508196,26.938605308532715
0.02028688524590164,129.04000282287598
0.02038934426229508,264.2007708549499
0.020491803278688523,414.28678035736084
0.020594262295081968,576.9479155540465
0.02069672131147541,749.4953513145446
0.020799180327868854,929.098641872406
0.020901639344262295,1112.3470902442932
0.021004098360655737,1296.1026191711424
0.02110655737704918,1477.2491812705991
0.021209016393442623,1652.3992896080015
0.021311475409836064,1818.9333558082578
0.02141393442622951,1973.5948920249937
0.02151639344262295,2114.032208919525
0.021618852459016392,2237.532877922058
0.021721311475409837,2342.0264840126033
0.021823770491803278,2425.526010990143
0.021926229508196723,2487.1864557266235
0.022028688524590164,2525.5503058433533
0.022131147540983605,2540.155720710754
0.02223360655737705,2530.382716655731
0.02233606557377049,2496.4732289314265
0.022438524590163933,2439.5641565322876
0.022540983606557378,2360.446608066559
0.02264344262295082,2260.023021697998
0.022745901639344264,2140.0616884231563
0.022848360655737705,2002.600371837616
0.022950819672131147,1850.5249857902527
0.02305327868852459,1686.1919403076172
0.023155737704918033,1512.453317642212
0.023258196721311474,1332.1958184242249
0.02336065573770492,1148.6165285110471
0.02346311475409836,965.0856256484985
0.0235655737704918,784.5023989677429
0.023668032786885247,610.3113770484923
0.023770491803278688,445.51295042037964
0.023872950819672133,292.7381157875061
0.023975409836065574,154.844856262207
0.024077868852459015,44.16006803512573
0.02418032786885246,3.164434432983398
0.0242827868852459,0.9433507919311523
0.024385245901639343,0.6774187088012694
0.024487704918032788,0.4099130630493164
0.02459016393442623,0.28127431869506836
0.02469262295081967,0.41660070419311523
0.024795081967213115,0.6707310676574707
0.024897540983606557,0.9252548217773436
0.025,3.994488716125488
0.025102459016393443,56.37878179550171
0.025204918032786884,176.63830518722534
0.02530737704918033,317.2947406768798
0.02540983606557377,472.28829860687256
0.02551229508196721,638.7865662574768
0.025614754098360656,814.215588569641
0.025717213114754098,995.5002307891845
0.025819672131147543,1179.2286157608032
0.025922131147540984,1362.4939799308775
0.026024590163934425,1541.7231559753418
0.02612704918032787,1714.099860191345
0.02622950819672131,1876.4852285385132
0.026331967213114753,2026.2758016586301
0.026434426229508198,2161.004626750946
0.02653688524590164,2277.8290629386897
0.02663934426229508,2374.8820781707764
0.026741803278688525,2450.5747675895686
0.026844262295081966,2503.658509254455
0.02694672131147541,2533.5388898849483
0.027049180327868853,2539.365792274475
0.027151639344262294,2520.791459083557
0.02725409836065574,2478.4779667854305
0.02735655737704918,2413.305723667145
0.02745901639344262,2326.072919368744
0.027561475409836066,2218.309450149536
0.027663934426229508,2091.8355345726013
0.027766393442622953,1948.826229572296
0.027868852459016394,1792.1111941337583
0.027971311475409835,1623.904824256897
0.02807377049180328,1447.5025534629822
0.02817622950819672,1265.686047077179
0.028278688524590163,1081.7861437797546
0.028381147540983608,898.8638162612914
0.02848360655737705,720.2243328094482
0.02858606557377049,549.0702867507933
0.028688524590163935,388.30254077911377
0.028790983606557376,240.65555334091184
0.02889344262295082,109.40980911254883
0.028995901639344263,20.281648635864258
0.029098360655737704,1.3371348381042478
0.02920081967213115,0.8446097373962401
0.02930327868852459,0.5656957626342773
0.02940573770491803,0.3540515899658203
0.029508196721311476,0.3162860870361328
0.029610655737704918,0.4913449287414551
0.02971311475409836,0.7513761520385742
0.029815573770491804,1.0153412818908691
0.029918032786885245,12.987792491912842
0.03002049180327869,95.47197818756104
0.03012295081967213,225.6107211112976
0.030225409836065573,371.75770998001093
0.030327868852459017,531.1572432518004
0.03043032786885246,701.2396931648253
0.0305327868852459,879.1864156723021
0.030635245901639345,1061.821961402893
0.030737704918032786,1245.7104563713074
0.03084016393442623,1427.929401397705
0.030942622950819672,1604.9394607543945
0.031045081967213114,1774.1289138793945
0.03114754098360656,1932.3333263397215
0.03125,2077.036571502685
0.03135245901639344,2205.392861366272
0.03145491803278688,2315.2593970298767
0.03155737704918033,2404.6589970588684
0.03165983606557377,2472.3453998565674
0.031762295081967214,2517.188787460327
0.031864754098360655,2538.4350299835205
0.031967213114754096,2535.344552993774
0.03206967213114754,2508.077073097229
0.032172131147540986,2457.2903394699097
0.03227459016393443,2384.015035629272
0.03237704918032787,2289.2476201057434
0.03247950819672131,2174.465274810791
0.03258196721311475,2041.669178009033
0.0326844262295082,1893.2912707328794
0.03278688524590164,1731.9177031517029
0.03288934426229508,1560.3793144226072
0.032991803278688524,1381.6654801368713
0.033094262295081965,1198.5657334327698
0.033196721311475406,1014.7720456123352
0.033299180327868855,832.9972386360168
0.033401639344262296,656.7535042762755
0.03350409836065574,489.1092896461486
0.03360655737704918,332.70778656005854
0.03370901639344262,190.3786540031433
0.03381147540983607,68.64666938781738
0.03391393442622951,7.310378551483153
0.03401639344262295,1.0204553604125974
0.03411885245901639,0.7372140884399414
0.034221311475409834,0.470888614654541
0.03432377049180328,0.2863883972167969
0.03442622950819672,0.3430366516113281
0.034528688524590165,0.589299201965332
0.034631147540983606,0.8638858795166015
0.03473360655737705,1.6833186149597166
0.03483606557377049,32.9606294631958
0.03493852459016394,140.1674509048462
0.03504098360655738,276.7566204071045
0.03514344262295082,428.11052799224854
0.03524590163934426,591.862142086029
0.0353483606557377,765.2195692062378
0.03545081967213115,945.233166217804
0.03555327868852459,1128.6153674125671
0.035655737704918034,1312.3209357261655
0.035758196721311475,1493.0579781532288
0.035860655737704916,1667.5877094268799
0.03596311475409836,1833.0556869506836
0.036065573770491806,1986.4666342735288
0.03616803278688525,2125.575864315033
0.03627049180327869,2247.602105140686
0.03637295081967213,2350.3077507019043
0.03647540983606557,2431.9780111312866
0.03657786885245902,2491.3748860359187
0.03668032786885246,2527.61914730072
0.0367827868852459,2540.0487184524536
0.036885245901639344,2528.2064795494075
0.036987704918032785,2492.322957515716
0.037090163934426226,2433.147954940796
0.037192622950819675,2351.8856406211853
0.037295081967213116,2249.5899081230164
0.03739754098360656,2128.11244726181
0.0375,1989.3454670906065
0.03760245901639344,1836.1642599105835
0.03770491803278689,1670.9091067314148
0.03780737704918033,1496.4816570281982
0.03790983606557377,1315.7044887542725
0.03801229508196721,1131.9827914237976
0.038114754098360654,948.5124707221985
0.038217213114754095,768.3592200279236
0.03831967213114754,594.970715045929
0.038422131147540985,431.2053322792053
0.038524590163934426,279.62719202041626
0.03862704918032787,143.1757092475891
0.03872950819672131,37.08847761154175
0.03883196721311476,2.4154186248779297
0.0389344262295082,0.9012579917907714
0.03903688524590164,0.6431937217712402
0.03913934426229508,0.39103031158447266
0.03924180327868852,0.2863883972167969
0.039344262295081964,0.4366636276245117
0.03944672131147541,0.6801724433898926
0.03954918032786885,0.9287953376770018
0.039651639344262295,5.406367778778075
0.039754098360655736,65.2501344680786
0.03985655737704918,188.4522199630737
0.039959016393442626,330.4158926010132
0.04006147540983607,486.509370803833
0.04016393442622951,654.0280938148499
0.04026639344262295,830.2080988883972
0.04036885245901639,1011.8786573410034
0.04047131147540984,1195.6621170043943
0.04057377049180328,1378.6839723587034
0.04067622950819672,1557.429277896881
0.04077868852459016,1729.1317105293274
0.040881147540983605,1890.546977519989
0.040983606557377046,2039.1762614250183
0.041086065573770494,2172.4117755889893
0.041188524590163936,2287.5143408775325
0.04129098360655738,2382.620859146118
0.04139344262295082,2456.345021724701
0.04149590163934426,2507.494461536407
0.04159836065573771,2535.322523117065
0.04170081967213115,2538.848090171814
0.04180327868852459,2517.9869771003723
0.04190573770491803,2473.65893125534
0.042008196721311473,2406.3608050346375
0.042110655737704915,2317.3829197883606
0.04221311475409836,2207.8818440437317
0.042315573770491804,2079.7509670257564
0.042418032786885246,1935.417115688324
0.04252049180327869,1777.469980716705
0.04262295081967213,1608.4237217903137
0.04272540983606558,1431.418776512146
0.04282786885245902,1249.207305908203
0.04293032786885246,1065.3184175491333
0.0430327868852459,882.671070098877
0.04313524590163934,704.566204547882
0.043237704918032784,534.2528343200684
0.04334016393442623,374.59995746612543
0.04344262295081967,228.19293737411496
0.043545081967213115,98.82327318191528
0.043647540983606556,16.088497638702393
0.04375,1.1778116226196287
0.043852459016393446,0.7997632026672363
0.04395491803278689,0.5354046821594238
0.04405737704918033,0.32887458801269526
0.04415983606557377,0.33202171325683594
0.04426229508196721,0.5322575569152832
0.04436475409836065,0.7808804512023926
0.0444672131147541,1.0739564895629883
0.04456967213114754,16.864657402038574
0.04467213114754098,106.25442266464233
0.044774590163934425,238.1075620651245
0.044877049180327866,385.5019927024841
0.044979508196721314,546.1438536643982
0.045081967213114756,717.0347213745116
0.0451844262295082,895.5699563026428
0.04528688524590164,1078.4765481948853
0.04538934426229508,1262.3516678810117
0.04549180327868853,1444.2625880241394
0.04559426229508197,1620.7167863845823
0.04569672131147541,1789.0734314918518
0.04579918032786885,1946.0126996040344
0.04590163934426229,2089.3733024597163
0.046004098360655735,2216.2496566772456
0.04610655737704918,2324.3337392807002
0.046209016393442624,2411.826968193054
0.046311475409836066,2477.337920665741
0.04641393442622951,2520.085322856903
0.04651639344262295,2539.0613079071045
0.0466188524590164,2533.8740587234497
0.04672131147540984,2504.5825839042664
0.04682377049180328,2451.9158363342285
0.04692622950819672,2376.5732645988464
0.04702868852459016,2279.818046092987
0.0471311475409836,2163.2532477378845
0.04723360655737705,2028.9414167404175
0.04733606557377049,1879.4100880622864
0.047438524590163934,1717.1934843063354
0.047540983606557376,1544.9387311935423
0.04764344262295082,1365.6922459602354
0.047745901639344265,1182.3946237564087
0.04784836065573771,998.6194252967833
0.04795081967213115,817.1908020973206
0.04805327868852459,641.532039642334
0.04815573770491803,474.726140499115
0.04825819672131147,319.5850610733032
0.04836065573770492,178.7523865699768
0.04846311475409836,60.24423837661743
0.0485655737704918,5.607783794403076
0.048668032786885244,1.0011792182922363
0.048770491803278686,0.7108569145202636
0.048872950819672134,0.4315495491027832
0.048975409836065575,0.2950429916381836
0.04907786885245902,0.39614439010620117
0.04918032786885246,0.6290316581726074
0.0492827868852459,0.8827686309814453
0.04938524590163934,2.1687626838684078
0.04948770491803279,39.88548517227172
0.04959016393442623,151.94635391235352
0.04969262295081967,289.85377550125116
0.04979508196721311,442.3068165779114
0.049897540983606554,606.9321513175963
0.05,780.9536218643188
0.050102459016393444,961.415684223175
0.050204918032786885,1144.9631094932556
0.05030737704918033,1328.5349249839783
0.05040983606557377,1508.79989862442
0.050512295081967216,1682.7049255371094
0.05061475409836066,1847.269284725189
0.0507172131147541,1999.590539932251
0.05081967213114754,2137.1958374977107
0.05092213114754098,2257.524597644806
0.05102459016393442,2358.2892537117
0.05112704918032787,2437.9787921905518
0.05122950819672131,2495.3949451446533
0.051331967213114754,2529.6065568923946
0.051434426229508196,2539.885461330414
0.05153688524590164,2525.7454276084895
0.051639344262295085,2487.668752670288
0.051741803278688527,2426.597213745117
0.05184426229508197,2343.38800907135
0.05194672131147541,2239.4073843955994
0.05204918032786885,2116.3500666618343
0.05215163934426229,1976.1326551437378
