{'sampling_frequency': 9760, 'signal_level': 100, 'signal_level_units': 'mVrms', 'signal_frequency': 205, 'signal_frequency_units': 'Hz'}
Time (s),Voltage (mV)
0.0,0.3815889358520508
0.00010245901639344262,0.3005504608154297
0.00020491803278688525,0.43705701828002924
0.00030737704918032784,0.6888270378112792
0.0004098360655737705,0.9472846984863281
0.0005122950819672131,5.822575092315673
0.0006147540983606557,67.29655265808105
0.0007172131147540983,191.04269742965695
0.000819672131147541,333.3922863006591
0.0009221311475409836,489.665150642395
0.0010245901639344263,657.3140859603881
0.001127049180327869,833.6699366569519
0.0012295081967213114,1015.4478907585143
0.001331967213114754,1199.2447257041931
0.0014344262295081967,1382.2701215744019
0.0015368852459016393,1560.9599590301514
0.001639344262295082,1732.3862314224243
0.0017418032786885246,1893.617784976959
0.0018442622950819673,2041.964614391327
0.00194672131147541,2174.7878551483154
0.0020491803278688526,2289.502930641174
0.002151639344262295,2384.257757663727
0.002254098360655738,2457.464611530304
0.0023565573770491805,2508.068025112152
0.0024590163934426227,2535.306394100189
0.0025614754098360654,2538.463747501373
0.002663934426229508,2517.469274997711
0.0027663934426229507,2472.4929213523865
0.0028688524590163933,2404.7132849693294
0.002971311475409836,2315.274739265442
0.0030737704918032786,2205.409777164459
0.0031762295081967213,2076.9862174987793
0.003278688524590164,1932.3518157005308
0.0033811475409836066,1774.0506291389463
0.0034836065573770492,1604.795479774475
0.003586065573770492,1427.6571750640867
0.0036885245901639345,1245.357584953308
0.003790983606557377,1061.497414112091
0.00389344262295082,878.9145827293395
0.003995901639344262,700.9898900985717
0.004098360655737705,530.8905243873596
0.004200819672131147,371.4547991752624
0.00430327868852459,225.38137435913086
0.004405737704918033,96.46883010864258
0.004508196721311476,15.26867151260376
0.004610655737704918,1.163649559020996
0.004713114754098361,0.800943374633789
0.004815573770491803,0.5251765251159668
0.0049180327868852455,0.3253340721130371
0.0050204918032786885,0.31785964965820307
0.005122950819672131,0.5236029624938965
0.005225409836065574,0.7875680923461913
0.005327868852459016,1.0853648185729978
0.005430327868852459,17.816269397735592
0.005532786885245901,108.69816541671752
0.0056352459016393444,241.0792350769043
0.005737704918032787,388.7809038162231
0.00584016393442623,549.596643447876
0.005942622950819672,720.7766532897949
0.006045081967213115,899.468457698822
0.006147540983606557,1082.4155688285828
0.00625,1266.287541389465
0.0063524590163934426,1448.138666152954
0.006454918032786886,1624.4783878326414
0.006557377049180328,1792.6410913467405
0.00665983606557377,1949.3769764900205
0.006762295081967213,2092.3146843910217
0.006864754098360655,2218.654453754425
0.0069672131147540985,2326.292037963867
0.007069672131147541,2413.4060382843018
0.007172131147540984,2478.7328839302063
0.007274590163934426,2520.8996415138245
0.007377049180327869,2539.3390417098994
0.007479508196721311,2533.619141578674
0.007581967213114754,2503.6848664283752
0.007684426229508197,2450.4661917686462
0.00778688524590164,2374.8207092285156
0.007889344262295083,2277.8141140937805
0.007991803278688524,2160.931062698364
0.008094262295081967,2026.1204123497007
0.00819672131147541,1876.2755513191223
0.008299180327868852,1713.7253522872925
0.008401639344262295,1541.2927865982056
0.008504098360655738,1361.9385123252866
0.00860655737704918,1178.6023378372192
0.008709016393442622,994.8723793029784
0.008811475409836065,813.5582327842712
0.008913934426229508,638.1209492683411
0.009016393442622951,471.6329097747802
0.009118852459016393,316.70544147491455
0.009221311475409836,176.11470222473145
0.009323770491803279,58.26981067657471
0.009426229508196722,5.239176750183105
0.009528688524590163,0.9862303733825684
0.009631147540983606,0.6935477256774902
0.00973360655737705,0.4291892051696777
0.009836065573770491,0.29228925704956055
0.009938524590163934,0.38906335830688477
0.010040983606557377,0.6298184394836425
0.01014344262295082,0.8788347244262695
0.010245901639344262,2.3147106170654297
0.010348360655737705,41.67698621749877
0.010450819672131148,154.75673675537107
0.01055327868852459,292.9131746292114
0.010655737704918032,445.7588195800781
0.010758196721311475,610.6009125709534
0.010860655737704918,784.8147511482239
0.010963114754098361,965.3731942176819
0.011065573770491803,1148.9359617233276
0.011168032786885246,1332.4991226196287
0.011270491803278689,1512.6700758934019
0.011372950819672132,1686.4126324653625
0.011475409836065573,1850.6371021270752
0.011577868852459016,2002.6821970939634
0.01168032786885246,2140.090799331665
0.0117827868852459,2259.982895851135
0.011885245901639344,2360.457229614258
0.011987704918032787,2439.7305607795715
0.01209016393442623,2496.5857386589046
0.012192622950819671,2530.296564102173
0.012295081967213115,2540.041637420654
0.012397540983606558,2525.4987716674805
0.0125,2487.080240249634
0.012602459016393442,2425.4937529563904
0.012704918032786885,2341.6441082954407
0.012807377049180328,2237.184727191925
0.012909836065573771,2113.649833202362
0.013012295081967213,1973.1019735336304
0.013114754098360656,1818.4140801429746
0.013217213114754099,1651.902437210083
0.01331967213114754,1476.6496539115906
0.013422131147540983,1295.4519510269165
0.013524590163934426,1111.655509471893
0.01362704918032787,928.4015536308287
0.01372950819672131,748.8545179367065
0.013831967213114754,576.2878060340881
0.013934426229508197,413.6117219924926
0.01403688524590164,263.60517740249634
0.014139344262295081,129.12458181381226
0.014241803278688524,29.431128501892086
0.014344262295081968,1.8206119537353516
0.01444672131147541,0.8835554122924804
0.014549180327868852,0.5900859832763672
0.014651639344262295,0.3438234329223633
0.014754098360655738,0.2840280532836914
0.01485655737704918,0.4728555679321289
0.014959016393442623,0.7261991500854491
0.015061475409836066,0.9744286537170409
0.015163934426229509,7.816672325134277
0.01526639344262295,76.91731452941895
0.015368852459016393,203.13591957092282
0.015471311475409836,346.83995246887207
0.01557377049180328,504.35829162597656
0.01567622950819672,672.9124188423157
0.015778688524590165,849.7537136077881
0.015881147540983607,1031.8640828132627
0.015983606557377048,1215.6762599945068
0.016086065573770493,1398.3708143234253
0.016188524590163934,1576.5342950820923
0.016290983606557376,1747.1789002418516
0.01639344262295082,1907.2680473327637
0.016495901639344262,2054.2584657669067
0.016598360655737703,2185.5553507804866
0.016700819672131148,2298.6201524734497
0.01680327868852459,2391.5693163871765
0.016905737704918034,2462.843441963196
0.017008196721311476,2511.5448117256165
0.017110655737704917,2536.636841297149
0.01721311475409836,2537.425982952118
0.017315573770491803,2513.9216780662537
0.017418032786885244,2467.062556743622
0.01752049180327869,2397.3824501037593
0.01762295081967213,2306.0497283935547
0.017725409836065575,2194.4282770156856
0.017827868852459017,2064.4181728363037
0.017930327868852458,1918.4552907943723
0.018032786885245903,1759.1836094856262
0.018135245901639344,1589.0649676322937
0.018237704918032786,1411.3283157348633
0.01834016393442623,1228.7797093391416
0.018442622950819672,1044.9392080307007
0.018545081967213113,862.6356840133667
0.018647540983606558,685.2782607078551
0.01875,516.0124897956848
0.018852459016393444,357.647180557251
0.018954918032786885,212.81293630599973
0.019057377049180327,86.2418532371521
0.01915983606557377,11.941373348236084
0.019262295081967213,1.099133491516113
0.019364754098360654,0.7690787315368652
0.0194672131147541,0.5066871643066406
0.01956967213114754,0.3036975860595703
0.019672131147540982,0.32690763473510737
0.019774590163934427,0.5546808242797852
0.019877049180327868,0.8044838905334473
0.019979508196721313,1.1848926544189453
0.020081967213114754,22.593605518341064
0.020184426229508196,119.98218297958374
0.02028688524590164,253.6457061767578
0.02038934426229508,402.6833295822143
0.020491803278688523,564.4715309143065
0.020594262295081968,736.4422559738158
0.02069672131147541,915.6214714050293
0.020799180327868854,1098.7200379371643
0.020901639344262295,1282.5263142585754
0.021004098360655737,1463.9738202095032
0.02110655737704918,1639.7895455360413
0.021209016393442623,1806.9510698318481
0.021311475409836064,1962.49498128891
0.02141393442622951,2104.112470149994
0.02151639344262295,2229.048228263855
0.021618852459016392,2335.0087881088257
0.021721311475409837,2420.225465297699
0.021823770491803278,2483.3737134933467
0.021926229508196723,2523.4897255897517
0.022028688524590164,2539.979875087738
0.022131147540983605,2532.0762634277344
0.02223360655737705,2500.0558376312256
0.02233606557377049,2444.845426082611
0.022438524590163933,2367.008364200592
0.022540983606557378,2267.957317829132
0.02264344262295082,2149.3496417999263
0.022745901639344264,2013.2171988487241
0.022848360655737705,1862.2700572013855
0.022950819672131147,1698.8130927085876
0.02305327868852459,1525.5504727363584
0.023155737704918033,1345.719015598297
0.023258196721311474,1162.3021960258484
0.02336065573770492,978.6548495292662
0.02346311475409836,797.7073431015014
0.0235655737704918,622.9097127914428
0.023668032786885247,457.2426795959472
0.023770491803278688,303.4886956214904
0.023872950819672133,164.3893003463745
0.023975409836065574,50.32528638839722
0.024077868852459015,3.9787530899047847
0.02418032786885246,0.9634137153625488
0.0242827868852459,0.679779052734375
0.024385245901639343,0.41542053222656244
0.024487704918032788,0.2899289131164551
0.02459016393442623,0.4095196723937988
0.02469262295081967,0.6431937217712402
0.024795081967213115,0.9032249450683593
0.024897540983606557,3.0995249748229976
0.025,49.5215892791748
0.025102459016393443,166.93729162216187
0.025204918032786884,306.4025402069092
0.02530737704918033,460.37013530731195
0.02540983606557377,626.0493636131285
0.02551229508196721,800.9024620056152
0.025614754098360656,982.0124387741088
0.025717213114754098,1165.7101392745972
0.025819672131147543,1349.0561485290527
0.025922131147540984,1528.7593603134155
0.026024590163934425,1701.7839789390564
0.02612704918032787,1865.162658691406
0.02622950819672131,2015.856850147247
0.026331967213114753,2151.6812682151794
0.026434426229508198,2269.800353050232
0.02653688524590164,2368.3718562126155
0.02663934426229508,2445.8139538764954
0.026741803278688525,2500.7828235626216
0.026844262295081966,2532.500731945038
0.02694672131147541,2539.9385690689087
0.027049180327868853,2522.935438156128
0.027151639344262294,2482.3571920394897
0.02725409836065574,2418.794310092926
0.02735655737704918,2333.3258628845215
0.02745901639344262,2227.1992921829224
0.027561475409836066,2101.892566680908
0.027663934426229508,1959.8474621772766
0.027766393442622953,1804.0167689323425
0.027868852459016394,1636.6184234619138
0.027971311475409835,1460.7067108154297
0.02807377049180328,1279.1042089462278
0.02817622950819672,1095.2621340751648
0.028278688524590163,912.223756313324
0.028381147540983608,733.1865549087524
0.02848360655737705,561.4439964294434
0.02858606557377049,399.82573986053467
0.028688524590163935,251.09063386917114
0.028790983606557376,118.20956468582153
0.02889344262295082,24.103832244873043
0.028995901639344263,1.5082597732543943
0.029098360655737704,0.8564114570617675
0.02920081967213115,0.5837917327880859
0.02930327868852459,0.34775733947753906
0.02940573770491803,0.30487775802612305
0.029508196721311476,0.48662424087524414
0.029610655737704918,0.7431149482727051
0.02971311475409836,0.9925246238708496
0.029815573770491804,10.432326793670654
0.029918032786885245,87.0636463165283
0.03002049180327869,215.55840969085693
0.03012295081967213,360.6751084327697
0.030225409836065573,519.2630767822264
0.030327868852459017,688.6090993881226
0.03043032786885246,866.0951614379883
0.0305327868852459,1048.4395980834959
0.030635245901639345,1232.3052763938904
0.030737704918032786,1414.7940874099731
0.03084016393442623,1592.3902988433838
0.030942622950819672,1762.1930480003357
0.031045081967213114,1921.1567044258118
0.03114754098360656,2066.7741894721985
0.03125,2196.564781665802
0.03135245901639344,2307.877814769745
0.03145491803278688,2398.8694667816158
0.03155737704918033,2468.229353427887
0.03165983606557377,2514.644336700439
0.031762295081967214,2537.56445646286
0.031864754098360655,2536.322128772735
0.031967213114754096,2510.9972119331355
0.03206967213114754,2461.9744420051575
0.032172131147540986,2390.218806266784
0.03227459016393443,2296.766889095306
0.03237704918032787,2183.36101770401
0.03247950819672131,2051.8229842185974
0.03258196721311475,1904.5461773872373
0.0326844262295082,1744.2430257797241
0.03278688524590164,1573.4032988548279
0.03288934426229508,1395.094656944275
0.032991803278688524,1212.199866771698
0.033094262295081965,1028.3648729324339
0.033196721311475406,846.3654398918151
0.033299180327868855,669.584333896637
0.033401639344262296,501.1210799217224
0.03350409836065574,343.8462495803833
0.03360655737704918,200.43922662734983
0.03370901639344262,76.4735698699951
0.03381147540983607,9.178590774536131
0.03391393442622951,1.026749610900879
0.03401639344262295,0.7415413856506348
0.03411885245901639,0.4854440689086914
0.034221311475409834,0.30723810195922846
0.03432377049180328,0.3469705581665039
0.03442622950819672,0.5672693252563475
0.034528688524590165,0.8343815803527831
0.034631147540983606,1.3788342475891113
0.03473360655737705,27.907133102416992
0.03483606557377049,131.02859258651733
0.03493852459016394,266.45922660827637
0.03504098360655738,416.662073135376
0.03514344262295082,579.4581413269043
0.03524590163934426,752.1491646766663
0.0353483606557377,931.7681908607483
0.03545081967213115,1115.006411075592
0.03555327868852459,1298.7871170043945
0.035655737704918034,1479.8573613166807
0.035758196721311475,1654.893386363983
0.035860655737704916,1821.2177753448486
0.03596311475409836,1975.6491780281067
0.036065573770491806,2115.863049030304
0.03616803278688525,2239.132797718048
0.03627049180327869,2343.2448148727417
0.03637295081967213,2426.516962051391
0.03647540983606557,2487.9047870635986
0.03657786885245902,2526.0499119758606
0.03668032786885246,2540.163195133209
0.0367827868852459,2529.8909783363342
0.036885245901639344,2495.735621452331
0.036987704918032785,2438.4465336799617
0.037090163934426226,2358.9458227157593
0.037192622950819675,2258.1241250038142
0.037295081967213116,2137.8594875335693
0.03739754098360656,2000.1298785209656
0.0375,1847.810983657837
0.03760245901639344,1683.2902908325193
0.03770491803278689,1509.4021797180176
0.03780737704918033,1329.0852785110471
0.03790983606557377,1145.4871058464048
0.03801229508196721,961.9381070137023
0.038114754098360654,781.4752578735352
0.038217213114754095,607.4089407920837
0.03831967213114754,442.78714656829834
0.038422131147540985,290.24637937545776
0.038524590163934426,152.54981517791745
0.03862704918032787,42.71435737609863
0.03872950819672131,2.9937028884887695
0.03883196721311476,0.9256482124328613
0.0389344262295082,0.6518483161926268
0.03903688524590164,0.3992915153503418
0.03913934426229508,0.3127455711364746
0.03924180327868852,0.4358768463134765
0.039344262295081964,0.6671905517578124
0.03944672131147541,0.9295821189880371
0.03954918032786885,4.223442077636718
0.039651639344262295,57.98027515411377
0.039754098360655736,178.64813804626465
0.03985655737704918,319.50166225433344
0.039959016393442626,474.6454954147339
0.04006147540983607,641.3951396942138
0.04016393442622951,817.0059084892273
0.04026639344262295,998.4408259391784
0.04036885245901639,1182.2164177894592
0.04047131147540984,1365.4345750808714
0.04057377049180328,1544.6515560150144
0.04067622950819672,1716.887032985687
0.04077868852459016,1879.1059970855713
0.040881147540983605,2028.6794185638425
0.040983606557377046,2163.1210684776306
0.041086065573770494,2279.6913743019104
0.041188524590163936,2376.4906525611877
0.04129098360655738,2451.7624139785767
0.04139344262295082,2504.431521892547
0.04149590163934426,2533.940541744232
0.04159836065573771,2539.3343210220337
0.04170081967213115,2520.3988552093506
0.04180327868852459,2477.8249382972713
0.04190573770491803,2412.173545360565
0.042008196721311473,2324.6047854423523
0.042110655737704915,2216.5655493736267
0.04221311475409836,2089.793837070465
0.042315573770491804,1946.5602993965147
0.042418032786885246,1789.6918416023252
0.04252049180327869,1621.3088393211362
0.04262295081967213,1444.822382926941
0.04272540983606558,1262.8150820732117
0.04282786885245902,1078.8782000541685
0.04293032786885246,896.0699558258057
0.0430327868852459,717.457616329193
0.04313524590163934,546.4841365814209
0.043237704918032784,385.8174920082092
0.04334016393442623,238.3959174156189
0.04344262295081967,107.46370553970335
0.043545081967213115,19.455921649932858
0.043647540983606556,1.291501522064209
0.04375,0.8308410644531249
0.043852459016393446,0.5637288093566895
0.04395491803278689,0.32887458801269526
0.04405737704918033,0.3107786178588867
0.04415983606557377,0.5106210708618164
0.04426229508196721,0.7541298866271972
0.04436475409836065,1.0243892669677732
0.0444672131147541,13.724613189697266
0.04456967213114754,97.5903868675232
0.04467213114754098,228.036367893219
0.044774590163934425,374.41427707672113
0.044877049180327866,534.0195536613464
0.044979508196721314,704.3081402778624
0.045081967213114756,882.379961013794
0.0451844262295082,1064.986789226532
0.04528688524590164,1248.896527290344
0.04538934426229508,1431.1131119728086
0.04549180327868853,1608.0641627311704
0.04559426229508197,1777.062427997589
0.04569672131147541,1934.9997282028198
0.04579918032786885,2079.455924034118
0.04590163934426229,2207.5470685958862
0.046004098360655735,2317.1169877052303
0.04610655737704918,2406.1920404434204
0.046209016393442624,2473.5601902008057
0.046311475409836066,2518.1274175643916
0.04641393442622951,2538.8697266578674
0.04651639344262295,2535.4110360145564
0.0466188524590164,2507.572746276855
0.04672131147540984,2456.437861919403
0.04682377049180328,2382.855713367462
0.04692622950819672,2287.807416915893
0.04702868852459016,2172.645056247711
0.0471311475409836,2039.465796947479
0.04723360655737705,1890.835726261139
0.04733606557377049,1729.344928264618
0.047438524590163934,1557.7243208885193
0.047540983606557376,1378.9164662361145
0.04764344262295082,1195.8446502685547
0.047745901639344265,1012.0096564292907
0.04784836065573771,830.2769422531128
0.04795081967213115,654.1327357292175
0.04805327868852459,486.66633367538446
0.04815573770491803,330.50715923309326
0.04825819672131147,188.34285736083984
0.04836065573770492,67.1722412109375
0.04846311475409836,6.972849369049072
0.0485655737704918,1.0330438613891602
0.048668032786885244,0.7340669631958007
0.048770491803278686,0.4665613174438476
0.048872950819672134,0.3005504608154297
0.048975409836065575,0.3619194030761719
0.04907786885245902,0.5928397178649901
0.04918032786885246,0.8599519729614257
0.0492827868852459,1.7364263534545896
0.04938524590163934,34.25055742263794
0.04948770491803279,142.62771606445312
0.04959016393442623,279.262912273407
0.04969262295081967,430.76512813568115
0.04979508196721311,594.6493148803711
0.049897540983606554,768.1723594665527
0.05,948.3165621757506
0.050102459016393444,1131.7026972770689
0.050204918032786885,1315.3571248054502
0.05030737704918033,1496.0579752922056
0.05040983606557377,1670.4858183860779
0.050512295081967216,1835.8428597450256
0.05061475409836066,1988.974106311798
0.0507172131147541,2127.770984172821
0.05081967213114754,2249.4821190834045
0.05092213114754098,2351.926159858703
0.05102459016393442,2433.0952405929565
0.05112704918032787,2492.191565036773
0.05122950819672131,2528.0255198478694
0.051331967213114754,2540.065240859985
0.051434426229508196,2527.6580929756165
0.05153688524590164,2491.480314731598
0.051639344262295085,2432.1794271469116
0.051741803278688527,2350.626790523529
0.05184426229508197,2247.9840874671936
0.05194672131147541,2126.0640621185303
0.05204918032786885,1986.8431091308594
