{'sampling_frequency': 9760, 'signal_level': 100, 'signal_level_units': 'mVrms', 'signal_frequency': 205, 'signal_frequency_units': 'Hz'}
Time (s),Voltage (mV)
0.0,2385.3348612785335
0.00010245901639344262,2458.428812026977
0.00020491803278688525,2508.7253808975215
0.00030737704918032784,2535.6293678283687
0.0004098360655737705,2538.3331418037415
0.0005122950819672131,2516.736781597137
0.0006147540983606557,2471.7061400413513
0.0007172131147540983,2403.818714618683
0.000819672131147541,2313.9981865882874
0.0009221311475409836,2203.834640979767
0.0010245901639344263,2075.2010107040405
0.001127049180327869,1930.3754210472107
0.0012295081967213114,1772.093117237091
0.001331967213114754,1602.7793526649475
0.0014344262295081967,1425.5588293075562
0.0015368852459016393,1243.2698607444763
0.001639344262295082,1059.3852996826172
0.0017418032786885246,876.7706036567687
0.0018442622950819673,698.8738417625426
0.00194672131147541,528.8602352142334
0.0020491803278688526,369.51184272766113
0.002151639344262295,223.64927530288693
0.002254098360655738,95.12264728546143
0.0023565573770491805,14.796602725982666
0.0024590163934426227,1.1605024337768555
0.0025614754098360654,0.808417797088623
0.002663934426229508,0.523996353149414
0.0027663934426229507,0.31510591506958
0.0028688524590163933,0.3241539001464844
0.002971311475409836,0.5322575569152832
0.0030737704918032786,0.7887482643127441
0.0031762295081967213,1.095592975616455
0.003278688524590164,18.438220024108887
0.0033811475409836066,110.27644872665404
0.0034836065573770492,242.7664875984192
0.003586065573770492,390.6577706336975
0.0036885245901639345,551.5832662582397
0.003790983606557377,722.8667378425597
0.00389344262295082,901.562476158142
0.003995901639344262,1084.464347362518
0.004098360655737705,1268.2895064353943
0.004200819672131147,1450.0753283500671
0.00430327868852459,1626.3245701789854
0.004405737704918033,1794.2917585372925
0.004508196721311476,1950.8167862892149
0.004610655737704918,2093.614053726196
0.004713114754098361,2219.9589371681213
0.004815573770491803,2327.451753616333
0.0049180327868852455,2414.2911672592163
0.0050204918032786885,2479.226589202881
0.005122950819672131,2521.217501163482
0.005225409836065574,2539.364218711853
0.005327868852459016,2533.3492755889893
0.005430327868852459,2503.2356142997737
0.005532786885245901,2449.54605102539
0.0056352459016393444,2373.54336977005
0.005737704918032787,2276.156759262085
0.00584016393442623,2159.1092705726624
0.005942622950819672,2024.275803565979
0.006045081967213115,1874.2303133010862
0.006147540983606557,1711.510956287384
0.00625,1538.961946964264
0.0063524590163934426,1359.5282077789307
0.006454918032786886,1176.214063167572
0.006557377049180328,992.4168348312378
0.00665983606557377,811.1180305480956
0.006762295081967213,635.7216596603394
0.006864754098360655,469.3591117858886
0.0069672131147540985,314.7196054458618
0.007069672131147541,174.3523120880127
0.007172131147540984,57.09121227264404
0.007274590163934426,5.0397276878356925
0.007377049180327869,0.9803295135498047
0.007479508196721311,0.697481632232666
0.007581967213114754,0.43233633041381836
0.007684426229508197,0.2981901168823242
0.00778688524590164,0.38237571716308594
0.007889344262295083,0.6136894226074219
0.007991803278688524,0.8827686309814453
0.008094262295081967,2.3811936378479
0.00819672131147541,42.577457427978516
0.008299180327868852,156.46837949752808
0.008401639344262295,294.74637508392334
0.008504098360655738,447.60264158248896
0.00860655737704918,612.5875353813171
0.008709016393442622,786.9374871253967
0.008811475409836065,967.623782157898
0.008913934426229508,1151.1857628822327
0.009016393442622951,1334.69660282135
0.009118852459016393,1514.8718833923338
0.009221311475409836,1688.4999632835386
0.009323770491803279,1852.6504755020142
0.009426229508196722,2004.3745636940002
0.009528688524590163,2141.4334416389465
0.009631147540983606,2261.054491996765
0.00973360655737705,2361.2499117851257
0.009836065573770491,2440.428042411804
0.009938524590163934,2497.3288536071773
0.010040983606557377,2530.715918540954
0.01014344262295082,2539.995217323303
0.010245901639344262,2524.991297721863
0.010348360655737705,2486.2395644187923
0.010450819672131148,2424.513030052185
0.01055327868852459,2340.611457824707
0.010655737704918032,2235.836970806122
0.010758196721311475,2111.956286430359
0.010860655737704918,1971.283721923828
0.010963114754098361,1816.4227366447446
0.011065573770491803,1649.8379230499268
0.011168032786885246,1474.4486331939697
0.011270491803278689,1293.1809067726135
0.011372950819672132,1109.3510270118713
0.011475409836065573,926.1737823486328
0.011577868852459016,746.6251730918883
0.01168032786885246,574.148154258728
0.0117827868852459,411.6156578063965
0.011885245901639344,261.72122955322266
0.011987704918032787,127.5230884552002
0.01209016393442623,28.671097755432125
0.012192622950819671,1.7706513404846191
0.012295081967213115,0.8741140365600585
0.012397540983606558,0.5774974822998047
0.0125,0.3571987152099609
0.012602459016393442,0.3056645393371582
0.012704918032786885,0.4551529884338379
0.012807377049180328,0.7049560546874999
0.012909836065573771,0.972461700439453
0.013012295081967213,8.12627077102661
0.013114754098360656,78.28119993209837
0.013217213114754099,204.88650798797605
0.01331967213114754,348.73176813125605
0.013422131147540983,506.3185572624206
0.013524590163934426,674.9545097351074
0.01362704918032787,851.9323110580443
0.01372950819672131,1034.1028690338135
0.013831967213114754,1217.9551720619202
0.013934426229508197,1400.674510002136
0.01403688524590164,1578.7250876426695
0.014139344262295081,1749.2827534675596
0.014241803278688524,1909.2511296272276
0.014344262295081968,2056.1896204948425
0.01444672131147541,2187.3256087303157
0.014549180327868852,2300.055634975433
0.014651639344262295,2392.744374275207
0.014754098360655738,2463.6196017265315
0.01485655737704918,2511.805629730224
0.014959016393442623,2536.890578269958
0.015061475409836066,2537.4460458755493
0.015163934426229509,2513.9216780662537
0.01526639344262295,2466.693162918091
0.015368852459016393,2396.7467308044434
0.015471311475409836,2305.0662517547607
0.01557377049180328,2193.243384361267
0.01567622950819672,2063.040518760681
0.015778688524590165,1916.9541120529175
0.015881147540983607,1757.4416756629942
0.015983606557377048,1587.1086359024048
0.016086065573770493,1409.279143810272
0.016188524590163934,1226.6290426254272
0.016290983606557376,1042.7621841430664
0.01639344262295082,860.4637742042542
0.016495901639344262,683.1094980239868
0.016598360655737703,513.9283061027527
0.016700819672131148,355.8076858520507
0.01680327868852459,211.37391328811646
0.016905737704918034,85.11950969696045
0.017008196721311476,11.525166034698485
0.017110655737704917,1.0790705680847168
0.01721311475409836,0.7694721221923827
0.017315573770491803,0.49567222595214844
0.017418032786885244,0.29582977294921875
0.01752049180327869,0.3438234329223633
0.01762295081967213,0.5570411682128906
0.017725409836065575,0.8143186569213867
0.017827868852459017,1.2167572975158691
0.017930327868852458,23.31233024597168
0.018032786885245903,121.44874334335326
0.018135245901639344,255.54420948028562
0.018237704918032786,404.6199917793274
0.01834016393442623,566.5081143379211
0.018442622950819672,738.581907749176
0.018545081967213113,917.7823662757874
0.018647540983606558,1100.9096503257751
0.01875,1284.6883893012998
0.018852459016393444,1466.057217121124
0.018954918032786885,1641.7317152023313
0.019057377049180327,1808.7764024734497
0.01915983606557377,1964.170432090759
0.019262295081967213,2105.5809974670406
0.019364754098360654,2230.1839470863342
0.0194672131147541,2335.925781726837
0.01956967213114754,2421.010673046112
0.019672131147540982,2483.987402915954
0.019774590163934427,2523.7572312355037
0.019877049180327868,2539.7835731506343
0.019979508196721313,2531.504273414612
0.020081967213114754,2499.2104411125183
0.020184426229508196,2443.6282753944397
0.02028688524590164,2365.716075897217
0.02038934426229508,2266.5576338768005
0.020491803278688523,2147.724151611328
0.020594262295081968,2011.3694429397583
0.02069672131147541,1860.1095557212827
0.020799180327868854,1696.5097904205322
0.020901639344262295,1523.2271075248718
0.021004098360655737,1343.2902216911316
0.02110655737704918,1159.8021984100342
0.021209016393442623,976.131248474121
0.021311475409836064,795.2356696128845
0.02141393442622951,620.5249786376953
0.02151639344262295,454.99759912490845
0.021618852459016392,301.42064094543457
0.021721311475409837,162.45932579040525
0.021823770491803278,49.13960695266723
0.021926229508196723,3.8371324539184566
0.022028688524590164,0.9516119956970215
0.022131147540983605,0.6683707237243652
0.02223360655737705,0.4122734069824218
0.02233606557377049,0.3033041954040527
0.022438524590163933,0.4012584686279297
0.022540983606557378,0.6428003311157227
0.02264344262295082,0.9047985076904297
0.022745901639344264,3.190791606903076
0.022848360655737705,50.31309127807617
0.022950819672131147,167.95223951339722
0.02305327868852459,307.78688192367554
0.023155737704918033,461.95117235183716
0.023258196721311474,627.836537361145
0.02336065573770492,802.822208404541
0.02346311475409836,983.8952064514159
0.0235655737704918,1167.5693035125732
0.023668032786885247,1350.9574055671692
0.023770491803278688,1530.5665969848633
0.023872950819672133,1703.4094691276548
0.023975409836065574,1866.5934205055237
0.024077868852459015,2017.3021674156187
0.02418032786885246,2153.079378604889
0.0242827868852459,2271.1237192153926
0.024385245901639343,2369.384443759918
0.024487704918032788,2446.3292956352234
0.02459016393442623,2500.9767651557922
0.02469262295081967,2532.3685526847835
0.024795081967213115,2539.706075191498
0.024897540983606557,2522.6250529289246
0.025,2481.8206071853638
0.025102459016393443,2417.992579936981
0.025204918032786884,2332.080388069153
0.02530737704918033,2225.481355190277
0.02540983606557377,2100.0117659568787
0.02551229508196721,1957.9206347465515
0.025614754098360656,1801.8759369850156
0.025717213114754098,1634.3222022056577
0.025819672131147543,1458.3703637123106
0.025922131147540984,1276.8032670021057
0.026024590163934425,1092.9183125495908
0.02612704918032787,909.776473045349
0.02622950819672131,730.7766437530518
0.026331967213114753,559.1056823730468
0.026434426229508198,397.6026892662048
0.02653688524590164,249.0689992904663
0.02663934426229508,116.59272909164429
0.026741803278688525,23.368191719055172
0.026844262295081966,1.4551520347595213
0.02694672131147541,0.8497238159179688
0.027049180327868853,0.5684494972229004
0.027151639344262294,0.35169124603271484
0.02725409836065574,0.30841827392578125
0.02735655737704918,0.4830837249755859
0.02745901639344262,0.7344603538513182
0.027561475409836066,0.9944915771484375
0.027663934426229508,10.754120349884031
0.027766393442622953,88.2831573486328
0.027868852459016394,217.1205639839172
0.027971311475409835,362.25339174270624
0.02807377049180328,520.9719657897949
0.02817622950819672,690.4627561569213
0.028278688524590163,868.0357575416564
0.028381147540983608,1050.5017518997192
0.02848360655737705,1234.4327330589292
0.02858606557377049,1416.9140696525574
0.028688524590163935,1594.396197795868
0.028790983606557376,1764.1092538833618
0.02889344262295082,1922.975742816925
0.028995901639344263,2068.5058951377864
0.029098360655737704,2198.0246543884277
0.02920081967213115,2309.032416343689
0.02930327868852459,2399.8403549194336
0.02940573770491803,2468.8697934150696
0.029508196721311476,2515.1675462722774
0.029610655737704918,2537.881529331207
0.02971311475409836,2536.2729549407954
0.029815573770491804,2510.426795482635
0.029918032786885245,2461.1270785331726
0.03002049180327869,2389.2664074897766
0.03012295081967213,2295.7578420639034
0.030225409836065573,2182.1057081222534
0.030327868852459017,2050.208902359009
0.03043032786885246,1902.7971625328064
0.0305327868852459,1742.3763871192932
0.030635245901639345,1571.4178562164304
0.030737704918032786,1393.0797100067139
0.03084016393442623,1210.194754600525
0.030942622950819672,1026.382577419281
0.031045081967213114,844.4331049919128
0.03114754098360656,667.7841782569884
0.03125,499.4688391685486
0.03135245901639344,342.3765420913696
0.03145491803278688,199.08242225646973
0.03155737704918033,75.4727840423584
0.03165983606557377,8.935081958770752
0.031762295081967214,1.0216355323791504
0.031864754098360655,0.7399678230285643
0.031967213114754096,0.47128200531005854
0.03206967213114754,0.29622316360473633
0.032172131147540986,0.35483837127685547
0.03227459016393443,0.568842887878418
0.03237704918032787,0.8143186569213867
0.03247950819672131,1.4268279075622556
0.03258196721311475,28.98935079574585
0.0326844262295082,132.76580572128296
0.03278688524590164,268.1830644607544
0.03288934426229508,418.66915225982666
0.032991803278688524,581.6434264183044
0.033094262295081965,754.4866919517517
0.033196721311475406,934.1643333435057
0.033299180327868855,1117.4784779548645
0.033401639344262296,1301.2064695358276
0.03350409836065574,1482.240915298462
0.03360655737704918,1657.2521567344666
0.03370901639344262,1823.3999133110046
0.03381147540983607,1977.6822209358213
0.03391393442622951,2117.677366733551
0.03401639344262295,2240.7732367515564
0.03411885245901639,2344.784939289093
0.034221311475409834,2427.524435520172
0.03432377049180328,2488.1872415542603
0.03442622950819672,2526.1938929557796
0.034528688524590165,2540.1635885238643
0.034631147540983606,2529.7430634498596
0.03473360655737705,2495.3213810920715
0.03483606557377049,2437.653851509094
0.03493852459016394,2357.66966342926
0.03504098360655738,2256.657564640045
0.03514344262295082,2136.1675143241882
0.03524590163934426,1998.408007621765
0.0353483606557377,1845.9762096405027
0.03545081967213115,1681.2407255172727
0.03555327868852459,1507.1834564208984
0.035655737704918034,1326.7945647239685
0.035758196721311475,1143.2199954986572
0.035860655737704916,959.6989274024963
0.03596311475409836,779.3002009391784
0.036065573770491806,605.2775502204895
0.03616803278688525,440.69509506225586
0.03627049180327869,288.3706927299499
0.03637295081967213,150.89364051818845
0.03647540983606557,41.69744253158569
0.03657786885245902,2.892994880676269
0.03668032786885246,0.9225010871887207
0.0367827868852459,0.6557822227478026
0.036885245901639344,0.40283203125
0.036987704918032785,0.2863883972167969
0.037090163934426226,0.42171478271484375
0.037192622950819675,0.6699442863464355
0.037295081967213116,0.924074649810791
0.03739754098360656,4.409909248352051
0.0375,59.053444862365716
0.03760245901639344,180.1331877708435
0.03770491803278689,321.2432026863098
0.03780737704918033,476.5262961387634
0.03790983606557377,643.325114250183
0.03801229508196721,818.9854502677916
0.038114754098360654,1000.4679679870605
0.038217213114754095,1184.2231035232544
0.03831967213114754,1367.4251317977903
0.038422131147540985,1546.553599834442
0.038524590163934426,1718.7528848648071
0.03862704918032787,1880.9683084487913
0.03872950819672131,2030.3847670555112
0.03883196721311476,2164.606511592865
0.0389344262295082,2280.741333961487
0.03903688524590164,2377.146828174591
0.03913934426229508,2452.131414413452
0.03924180327868852,2504.6526074409485
0.039344262295081964,2533.9295268058777
0.03944672131147541,2539.168703556061
0.03954918032786885,2519.7178959846497
0.039651639344262295,2476.755702495575
0.039754098360655736,2410.8179211616516
0.03985655737704918,2323.1834650039673
0.039959016393442626,2214.8877382278442
0.04006147540983607,2087.9220843315125
0.04016393442622951,1944.3431496620178
0.04026639344262295,1787.2343301773071
0.04036885245901639,1618.728983402252
0.04047131147540984,1442.1669960021973
0.04057377049180328,1260.1781845092771
0.04067622950819672,1076.303458213806
0.04077868852459016,893.5207843780518
0.040881147540983605,715.0528192520142
0.040983606557377046,544.1517233848572
0.041086065573770494,383.7517976760864
0.041188524590163936,236.3664150238037
0.04129098360655738,105.74026107788086
0.04139344262295082,18.7674880027771
0.04149590163934426,1.2757658958435059
0.04159836065573771,0.8284807205200194
0.04170081967213115,0.5436658859252929
0.04180327868852459,0.3241539001464844
0.04190573770491803,0.3158926963806152
0.042008196721311473,0.5114078521728516
0.042110655737704915,0.7619976997375487
0.04221311475409836,1.0322570800781248
0.042315573770491804,14.133739471435547
0.042418032786885246,98.87716770172118
0.04252049180327869,229.57491874694824
0.04262295081967213,376.1109709739685
0.04272540983606558,535.8500003814697
0.04282786885245902,706.1739921569824
0.04293032786885246,884.3170166015625
0.0430327868852459,1066.9549226760864
0.04313524590163934,1250.7863759994507
0.043237704918032784,1432.9148411750791
0.04334016393442623,1609.830093383789
0.04344262295081967,1778.7217497825623
0.043545081967213115,1936.4293098449705
0.043647540983606556,2080.626261234283
0.04375,2208.6768865585323
0.043852459016393446,2318.1504249572754
0.04395491803278689,2406.9560050964355
0.04405737704918033,2473.8520860671997
0.04415983606557377,2517.895710468292
0.04426229508196721,2538.4259819984436
0.04436475409836065,2534.6270084381104
0.0444672131147541,2506.769049167633
0.04456967213114754,2455.50434589386
0.04467213114754098,2381.5547704696655
0.044774590163934425,2286.0434532165527
0.044877049180327866,2170.7327842712402
0.044979508196721314,2037.4252796173096
0.045081967213114756,1888.778293132782
0.0451844262295082,1727.2918224334717
0.04528688524590164,1555.534315109253
0.04538934426229508,1376.6544699668884
0.04549180327868853,1193.5189247131348
0.04559426229508197,1009.6583604812621
0.04569672131147541,828.0452370643615
0.04579918032786885,651.9863963127136
0.04590163934426229,484.5990657806396
0.046004098360655735,328.6621570587158
0.04610655737704918,186.87078952789304
0.046209016393442624,66.11441373825073
0.046311475409836066,6.746256351470947
0.04641393442622951,1.0259628295898438
0.04651639344262295,0.7387876510620117
0.0466188524590164,0.4685282707214355
0.04672131147540984,0.30645132064819336
0.04682377049180328,0.3792285919189453
0.04692622950819672,0.5963802337646484
0.04702868852459016,0.8575916290283203
0.0471311475409836,1.8178582191467285
0.04723360655737705,35.18171310424805
0.04733606557377049,144.18121576309204
0.047438524590163934,281.1897397041321
0.047540983606557376,432.84734487533564
0.04764344262295082,596.8731522560118
0.047745901639344265,770.4371094703673
0.04784836065573771,950.6116032600403
0.04795081967213115,1134.0638279914856
0.04805327868852459,1317.6938652992246
0.04815573770491803,1498.2550621032713
0.04825819672131147,1672.6207494735715
0.04836065573770492,1837.9392385482786
0.04846311475409836,1991.1224126815794
0.0485655737704918,2129.7717690467834
0.048668032786885244,2251.184320449829
0.048770491803278686,2353.2058596611023
0.048872950819672134,2434.1959476470943
0.048975409836065575,2492.981886863708
0.04907786885245902,2528.696644306183
0.04918032786885246,2540.3697252273555
0.0492827868852459,2527.7493596076965
0.04938524590163934,2491.048371791839
0.04948770491803279,2431.3273429870605
0.04959016393442623,2349.526083469391
0.04969262295081967,2246.6107606887817
0.04979508196721311,2124.607729911804
0.049897540983606554,1985.3753685951233
0.05,1831.6831469535825
0.050102459016393444,1666.0786628723142
0.050204918032786885,1491.418719291687
0.05030737704918033,1310.5727076530457
0.05040983606557377,1126.843535900116
0.050512295081967216,943.4514999389648
0.05061475409836066,763.4630799293518
0.0507172131147541,590.2059674263
0.05081967213114754,426.6939282417297
0.05092213114754098,275.4859685897827
0.05102459016393442,139.65407609939575
0.05112704918032787,35.064876079559326
0.05122950819672131,2.2486209869384766
0.051331967213114754,0.9103059768676758
0.051434426229508196,0.6152629852294922
0.05153688524590164,0.3772616386413574
0.051639344262295085,0.3170728683471679
0.051741803278688527,0.4602670669555664
0.05184426229508197,0.6982684135437012
0.05194672131147541,0.9350895881652831
0.05204918032786885,6.020450592041016
