{'sampling_frequency': 9760, 'signal_level': 10, 'signal_level_units': 'mVrms', 'signal_frequency': 105, 'signal_frequency_units': 'Hz'}
Time (s),Voltage (mV)
0.0,1266.9224739074707
0.00010245901639344262,1262.196671962738
0.00020491803278688525,1256.960642337799
0.00030737704918032784,1251.198649406433
0.0004098360655737705,1244.9535727500916
0.0005122950819672131,1238.2576704025269
0.0006147540983606557,1231.0680627822876
0.0007172131147540983,1223.5499739646912
0.000819672131147541,1215.6849145889282
0.0009221311475409836,1207.4095487594604
0.0010245901639344263,1198.8698244094849
0.001127049180327869,1190.09131193161
0.0012295081967213114,1181.1310529708862
0.001331967213114754,1171.9980955123901
0.0014344262295081967,1162.6908659934998
0.0015368852459016393,1153.2734870910645
0.001639344262295082,1143.8207030296326
0.0017418032786885246,1134.398603439331
0.0018442622950819673,1125.0473141670227
0.00194672131147541,1115.768015384674
0.0020491803278688526,1106.5784096717834
0.002151639344262295,1097.5807785987854
0.002254098360655738,1088.7916445732114
0.0023565573770491805,1080.264902114868
0.0024590163934426227,1072.007632255554
0.0025614754098360654,1064.0886783599851
0.002663934426229508,1056.5139412879942
0.0027663934426229507,1049.344789981842
0.0028688524590163933,1042.625284194946
0.002971311475409836,1036.3526701927183
0.0030737704918032786,1030.591070652008
0.0031762295081967213,1025.333797931671
0.003278688524590164,1020.6512689590454
0.0033811475409836066,1016.4553642272949
0.0034836065573770492,1012.8196477890015
0.003586065573770492,1009.8613500595093
0.0036885245901639345,1007.4994325637816
0.003790983606557377,1005.7445168495178
0.00389344262295082,1004.6457767486572
0.003995901639344262,1004.1776418685913
0.004098360655737705,1004.3711900711058
0.004200819672131147,1005.1882624626159
0.00430327868852459,1006.644594669342
0.004405737704918033,1008.7645769119263
0.004508196721311476,1011.47700548172
0.004610655737704918,1014.770472049713
0.004713114754098361,1018.6835289001464
0.004815573770491803,1023.1449723243713
0.0049180327868852455,1028.106415271759
0.0050204918032786885,1033.6189985275269
0.005122950819672131,1039.6217465400694
0.005225409836065574,1046.109938621521
0.005327868852459016,1053.0985236167908
0.005430327868852459,1060.4808926582336
0.005532786885245901,1068.255078792572
0.0056352459016393444,1076.3601064682007
0.005737704918032787,1084.7208380699158
0.00584016393442623,1093.375039100647
0.005942622950819672,1102.2873044013977
0.006045081967213115,1111.3769888877869
0.006147540983606557,1120.6358313560486
0.00625,1129.9875140190122
0.0063524590163934426,1139.3710613250732
0.006454918032786886,1148.7762451171875
0.006557377049180328,1158.201491832733
0.00665983606557377,1167.58975982666
0.006762295081967213,1176.828145980835
0.006864754098360655,1185.8863592147825
0.0069672131147540985,1194.7577118873596
0.007069672131147541,1203.4256815910337
0.007172131147540984,1211.795461177826
0.007274590163934426,1219.822597503662
0.007377049180327869,1227.5039434432983
0.007479508196721311,1234.8682165145874
0.007581967213114754,1241.7761564254758
0.007684426229508197,1248.2706427574158
0.00778688524590164,1254.25568819046
0.007889344262295083,1259.7548961639404
0.007991803278688524,1264.7281408309937
0.008094262295081967,1269.1408038139343
0.00819672131147541,1272.9622006416319
0.008299180327868852,1276.2576341629028
0.008401639344262295,1278.936231136322
0.008504098360655738,1281.0153007507324
0.00860655737704918,1282.4153780937193
0.008709016393442622,1283.193504810333
0.008811475409836065,1283.3418130874632
0.008913934426229508,1282.8780055046082
0.009016393442622951,1281.8095564842222
0.009118852459016393,1280.0121545791626
0.009221311475409836,1277.7013778686523
0.009323770491803279,1274.7253775596619
0.009426229508196722,1271.1718797683716
0.009528688524590163,1267.003512382507
0.009631147540983606,1262.2906923294065
0.00973360655737705,1257.0251584053037
0.009836065573770491,1251.2702465057373
0.009938524590163934,1245.0310707092285
0.010040983606557377,1238.3036971092222
0.01014344262295082,1231.085765361786
0.010245901639344262,1223.5102415084837
0.010348360655737705,1215.655016899109
0.010450819672131148,1207.435119152069
0.01055327868852459,1198.9123106002808
0.010655737704918032,1190.1404857635498
0.010758196721311475,1181.16055727005
0.010860655737704918,1172.0488429069517
0.010963114754098361,1162.7514481544495
0.011065573770491803,1153.3694744110107
0.011168032786885246,1143.9568161964414
0.011270491803278689,1134.5358967781067
0.011372950819672132,1125.1409411430357
0.011475409836065573,1115.812861919403
0.011577868852459016,1106.5988659858704
0.01168032786885246,1097.5980877876282
0.0117827868852459,1088.8872385025024
0.011885245901639344,1080.4116368293762
0.011987704918032787,1072.1303701400757
0.01209016393442623,1064.249575138092
0.012192622950819671,1056.6500544548035
0.012295081967213115,1049.4691014289856
0.012397540983606558,1042.7814602851868
0.0125,1036.5702152252197
0.012602459016393442,1030.8231711387634
0.012704918032786885,1025.5537033081055
0.012807377049180328,1020.8629131317138
0.012909836065573771,1016.738212108612
0.013012295081967213,1013.1733059883117
0.013114754098360656,1010.1902246475219
0.013217213114754099,1007.8106045722961
0.01331967213114754,1006.0761451721191
0.013422131147540983,1004.9317717552184
0.013524590163934426,1004.3822050094604
0.01362704918032787,1004.5891284942627
0.01372950819672131,1005.4431796073912
0.013831967213114754,1006.8955779075621
0.013934426229508197,1008.9762210845947
0.01403688524590164,1011.6532444953918
0.014139344262295081,1014.9624466896057
0.014241803278688524,1018.8247561454773
0.014344262295081968,1023.2921004295348
0.01444672131147541,1028.2905220985413
0.014549180327868852,1033.8267087936401
0.014651639344262295,1039.8664355278015
0.014754098360655738,1046.4030146598816
0.01485655737704918,1053.3758640289307
0.014959016393442623,1060.7027649879456
0.015061475409836066,1068.4509873390198
0.015163934426229509,1076.5434265136716
0.01526639344262295,1084.9167466163633
0.015368852459016393,1093.5599327087402
0.015471311475409836,1102.4482011795042
0.01557377049180328,1111.5473270416257
0.01567622950819672,1120.782172679901
0.015778688524590165,1130.1334619522095
0.015881147540983607,1139.5225167274475
0.015983606557377048,1148.9029169082642
0.016086065573770493,1158.3163619041443
0.016188524590163934,1167.6515221595764
0.016290983606557376,1176.8781065940857
0.01639344262295082,1185.9540224075317
0.016495901639344262,1194.7911500930786
0.016598360655737703,1203.4241080284119
0.016700819672131148,1211.754548549652
0.01680327868852459,1219.8127627372742
0.016905737704918034,1227.5554776191711
0.017008196721311476,1234.8796248435974
0.017110655737704917,1241.8013334274292
0.01721311475409836,1248.2580542564392
0.017315573770491803,1254.2210698127744
0.017418032786885244,1259.7273588180542
0.01752049180327869,1264.7135853767395
0.01762295081967213,1269.0928101539612
0.017725409836065575,1272.882342338562
0.017827868852459017,1276.1089324951172
0.017930327868852458,1278.7761211395264
0.018032786885245903,1280.8260798454282
0.018135245901639344,1282.261562347412
0.018237704918032786,1283.0754876136778
0.01834016393442623,1283.245825767517
0.018442622950819672,1282.762348651886
0.018545081967213113,1281.6207289695737
0.018647540983606558,1279.8807621002197
0.01875,1277.546775341034
0.018852459016393444,1274.565267562866
0.018954918032786885,1270.984625816345
0.019057377049180327,1266.8575644493103
0.01915983606557377,1262.1423840522766
0.019262295081967213,1256.8575739860535
0.019364754098360654,1251.1239051818848
0.0194672131147541,1244.895350933075
0.01956967213114754,1238.156175613403
0.019672131147540982,1230.9594869613647
0.019774590163934427,1223.4295964241026
0.019877049180327868,1215.579879283905
0.019979508196721313,1207.4138760566711
0.020081967213114754,1198.8560557365417
0.020184426229508196,1190.0574803352356
0.02028688524590164,1181.0661435127258
0.02038934426229508,1171.9032883644102
0.020491803278688523,1162.583076953888
0.020594262295081968,1153.2121181488037
0.02069672131147541,1143.8297510147095
0.020799180327868854,1134.422206878662
0.020901639344262295,1125.0760316848753
0.021004098360655737,1115.8030271530151
0.02110655737704918,1106.647253036499
0.021209016393442623,1097.661030292511
0.021311475409836064,1088.8400316238403
0.02141393442622951,1080.3136825561523
0.02151639344262295,1072.036349773407
0.021618852459016392,1064.1173958778381
0.021721311475409837,1056.5678358078003
0.021823770491803278,1049.4148135185242
0.021926229508196723,1042.6689505577087
0.022028688524590164,1036.4171862602234
0.022131147540983605,1030.6292295455933
0.02223360655737705,1025.4022479057312
0.02233606557377049,1020.6819534301757
0.022438524590163933,1016.4868354797363
0.022540983606557378,1012.8928184509276
0.02264344262295082,1009.9294066429138
0.022745901639344264,1007.6343655586242
0.022848360655737705,1005.9235095977783
0.022950819672131147,1004.798412322998
0.02305327868852459,1004.3676495552063
0.023155737704918033,1004.5151710510254
0.023258196721311474,1005.300772190094
0.02336065573770492,1006.7102909088135
0.02346311475409836,1008.7893605232239
0.0235655737704918,1011.4600896835326
0.023668032786885247,1014.7783398628234
0.023770491803278688,1018.6799883842468
0.023872950819672133,1023.1135010719299
0.023975409836065574,1028.096580505371
0.024077868852459015,1033.588707447052
0.02418032786885246,1039.6378755569458
0.0242827868852459,1046.14337682724
0.024385245901639343,1053.104817867279
0.024487704918032788,1060.4620099067688
0.02459016393442623,1068.1929230690002
0.02469262295081967,1076.2869358062744
0.024795081967213115,1084.682285785675
0.024897540983606557,1093.373465538025
0.025,1102.2994995117188
0.025102459016393443,1111.417508125305
0.025204918032786884,1120.6641554832456
0.02530737704918033,1129.9686312675476
0.02540983606557377,1139.3443107604978
0.02551229508196721,1148.7628698349
0.025614754098360656,1158.1991314888
0.025717213114754098,1167.5877928733823
0.025819672131147543,1176.7974615097046
0.025922131147540984,1185.8552813529968
0.026024590163934425,1194.7620391845703
0.02612704918032787,1203.4327626228333
0.02622950819672131,1211.7923140525818
0.026331967213114753,1219.8403000831604
0.026434426229508198,1227.546429634094
0.02653688524590164,1234.9453210830688
0.02663934426229508,1241.8823719024656
0.026741803278688525,1248.34223985672
0.026844262295081966,1254.3190240859985
0.02694672131147541,1259.8103642463682
0.027049180327868853,1264.7407293319702
0.027151639344262294,1269.1581130027769
0.02725409836065574,1272.9649543762207
0.02735655737704918,1276.20609998703
0.02745901639344262,1278.8819432258604
0.027561475409836066,1280.9425234794617
0.027663934426229508,1282.3697447776794
0.027766393442622953,1283.1435441970825
0.027868852459016394,1283.3319783210752
0.027971311475409835,1282.8603029251099
0.02807377049180328,1281.7474007606506
0.02817622950819672,1279.9696683883665
0.028278688524590163,1277.6179790496824
0.028381147540983608,1274.66322183609
0.02848360655737705,1271.1451292037964
0.02858606557377049,1267.0058727264404
0.028688524590163935,1262.3249173164365
0.028790983606557376,1257.08692073822
0.02889344262295082,1251.2765407562254
0.028995901639344263,1244.9834704399107
0.029098360655737704,1238.2568836212158
0.02920081967213115,1231.1058282852173
0.02930327868852459,1223.556661605835
0.02940573770491803,1215.6939625740051
0.029508196721311476,1207.4819326400757
0.029610655737704918,1198.9359140396118
0.02971311475409836,1190.1601552963257
0.029815573770491804,1181.1633110046387
0.029918032786885245,1172.0752000808716
0.03002049180327869,1162.810456752777
0.03012295081967213,1153.420615196228
0.030225409836065573,1143.9961552619932
0.030327868852459017,1134.5476984977722
0.03043032786885246,1125.1499891281128
0.0305327868852459,1115.8702969551086
0.030635245901639345,1106.6795110702515
0.030737704918032786,1097.6976156234741
0.03084016393442623,1088.917529582977
0.030942622950819672,1080.3919672966003
0.031045081967213114,1072.1114873886108
0.03114754098360656,1064.1937136650085
0.03125,1056.6783785820007
0.03135245901639344,1049.4986057281494
0.03145491803278688,1042.7708387374876
0.03155737704918033,1036.499011516571
0.03165983606557377,1030.7315111160278
0.031762295081967214,1025.4718780517578
0.031864754098360655,1020.7995772361755
0.031967213114754096,1016.6524529457092
0.03206967213114754,1013.080859184265
0.032172131147540986,1010.1135134696959
0.03227459016393443,1007.7295660972594
0.03237704918032787,1005.9935331344604
0.03247950819672131,1004.8554539680481
0.03258196721311475,1004.3802380561829
0.0326844262295082,1004.5273661613463
0.03278688524590164,1005.3589940071106
0.03288934426229508,1006.7850351333618
0.032991803278688524,1008.8393211364746
0.033094262295081965,1011.5301132202148
0.033196721311475406,1014.812958240509
0.033299180327868855,1018.7035918235779
0.033401639344262296,1023.1359243392943
0.03350409836065574,1028.0662894248962
0.03360655737704918,1033.5466146469116
0.03370901639344262,1039.5875215530396
0.03381147540983607,1046.0883021354675
0.03391393442622951,1053.0147314071653
0.03401639344262295,1060.3766441345215
0.03411885245901639,1068.1429624557495
0.034221311475409834,1076.2527108192444
0.03432377049180328,1084.6165895462036
0.03442622950819672,1093.2865262031555
0.034528688524590165,1102.204692363739
0.034631147540983606,1111.3101124763489
0.03473360655737705,1120.5929517745972
0.03483606557377049,1129.9761056900024
0.03493852459016394,1139.389157295227
0.03504098360655738,1148.8081097602844
0.03514344262295082,1158.2266688346863
0.03524590163934426,1167.5445199012754
0.0353483606557377,1176.7463207244873
0.03545081967213115,1185.7946991920471
0.03555327868852459,1194.6613311767578
0.035655737704918034,1203.314745426178
0.035758196721311475,1211.6554141044614
0.035860655737704916,1219.74116563797
0.03596311475409836,1227.4862408638
0.036065573770491806,1234.8335981369019
0.03616803278688525,1241.8056607246397
0.03627049180327869,1248.2816576957703
0.03637295081967213,1254.2332649230957
0.03647540983606557,1259.7214579582214
0.03657786885245902,1264.7175192832947
0.03668032786885246,1269.162046909332
0.0367827868852459,1272.9610204696655
0.036885245901639344,1276.188004016876
0.036987704918032785,1278.8418173789978
0.037090163934426226,1280.859124660492
0.037192622950819675,1282.3012948036192
0.037295081967213116,1283.100664615631
0.03739754098360656,1283.2249760627744
0.0375,1282.7009797096252
0.03760245901639344,1281.5510988235471
0.03770491803278689,1279.7820210456848
0.03780737704918033,1277.4810791015625
0.03790983606557377,1274.5507121086118
0.03801229508196721,1271.0101962089536
0.038114754098360654,1266.8776273727415
0.038217213114754095,1262.1805429458616
0.03831967213114754,1256.969690322876
0.038422131147540985,1251.2128114700315
0.038524590163934426,1244.944131374359
0.03862704918032787,1238.2545232772825
0.03872950819672131,1231.1180233955383
0.03883196721311476,1223.558235168457
0.0389344262295082,1215.703010559082
0.03903688524590164,1207.4764251708984
0.03913934426229508,1198.9721059799194
0.03924180327868852,1190.1735305786133
0.039344262295081964,1181.2313675880432
0.03944672131147541,1172.109818458557
0.03954918032786885,1162.8183245658875
0.039651639344262295,1153.4044861793518
0.039754098360655736,1143.998908996582
0.03985655737704918,1134.587824344635
0.039959016393442626,1125.2215862274168
0.04006147540983607,1115.910816192627
0.04016393442622951,1106.7652702331543
0.04026639344262295,1097.7424621582031
0.04036885245901639,1088.9116287231443
0.04047131147540984,1080.3750514984129
0.04057377049180328,1072.1854448318481
0.04067622950819672,1064.2897009849548
0.04077868852459016,1056.7487955093384
0.040881147540983605,1049.5741367340088
0.040983606557377046,1042.818832397461
0.041086065573770494,1036.5277290344236
0.041188524590163936,1030.7429194450376
0.04129098360655738,1025.5249857902527
0.04139344262295082,1020.8294749259948
0.04149590163934426,1016.6851043701171
0.04159836065573771,1013.0867600440978
0.04170081967213115,1010.157573223114
0.04180327868852459,1007.8373551368713
0.04190573770491803,1006.1036825180054
0.042008196721311473,1004.9294114112854
0.042110655737704915,1004.4227242469788
0.04221311475409836,1004.584801197052
0.042315573770491804,1005.4518342018126
0.042418032786885246,1006.945538520813
0.04252049180327869,1009.0112328529357
0.04262295081967213,1011.6984844207764
0.04272540983606558,1015.0120139122009
0.04282786885245902,1018.8688158988953
0.04293032786885246,1023.2657432556151
0.0430327868852459,1028.292095661163
0.04313524590163934,1033.8377237319946
0.043237704918032784,1039.8703694343567
0.04334016393442623,1046.366035938263
0.04344262295081967,1053.3089876174927
0.043545081967213115,1060.6649994850159
0.043647540983606556,1068.4309244155884
0.04375,1076.5186429023743
0.043852459016393446,1084.8915696144104
0.04395491803278689,1093.533182144165
0.04405737704918033,1102.41082906723
0.04415983606557377,1111.4662885665894
0.04426229508196721,1120.714509487152
0.04436475409836065,1130.0748467445374
0.0444672131147541,1139.462327957153
0.04456967213114754,1148.8738059997559
0.04467213114754098,1158.2951188087463
0.044774590163934425,1167.651915550232
0.044877049180327866,1176.8529295921326
0.044979508196721314,1185.8773112297058
0.045081967213114756,1194.8328495025635
0.0451844262295082,1203.5181283950803
0.04528688524590164,1211.8253588676453
0.04538934426229508,1219.8607563972473
0.04549180327868853,1227.610158920288
0.04559426229508197,1234.9822998046875
0.04569672131147541,1241.879618167877
0.04579918032786885,1248.345386981964
0.04590163934426229,1254.3205976486204
0.046004098360655735,1259.783613681793
0.04610655737704918,1264.7057175636292
0.046209016393442624,1269.1105127334595
0.046311475409836066,1272.9342699050903
0.04641393442622951,1276.1765956878662
0.04651639344262295,1278.826081752777
0.0466188524590164,1280.907118320465
0.04672131147540984,1282.3304057121277
0.04682377049180328,1283.1380367279053
0.04692622950819672,1283.3052277565002
0.04702868852459016,1282.829225063324
0.0471311475409836,1281.7198634147644
0.04723360655737705,1279.9551129341125
0.04733606557377049,1277.5829672813416
0.047438524590163934,1274.5876908302307
0.047540983606557376,1271.0322260856628
0.04764344262295082,1266.8752670288086
0.047745901639344265,1262.1848702430725
0.04784836065573771,1256.9177627563474
0.04795081967213115,1251.1707186698914
0.04805327868852459,1244.9657678604124
0.04815573770491803,1238.2974028587341
0.04825819672131147,1231.1487078666687
0.04836065573770492,1223.644781112671
0.04846311475409836,1215.7899498939512
0.0485655737704918,1207.5712323188782
0.048668032786885244,1199.0307211875916
0.048770491803278686,1190.236473083496
0.048872950819672134,1181.2663793563843
0.048975409836065575,1172.1047043800354
0.04907786885245902,1162.808883190155
0.04918032786885246,1153.420615196228
0.0492827868852459,1144.0260529518127
0.04938524590163934,1134.6350312232971
0.04948770491803279,1125.277054309845
0.04959016393442623,1115.956449508667
0.04969262295081967,1106.790053844452
0.04979508196721311,1097.8081583976743
0.049897540983606554,1088.9946341514587
0.05,1080.4914951324463
0.050102459016393444,1072.21337556839
0.050204918032786885,1064.251148700714
0.05030737704918033,1056.7023754119873
0.05040983606557377,1049.557614326477
0.050512295081967216,1042.7909016609192
0.05061475409836066,1036.4856362342834
0.0507172131147541,1030.712628364563
0.05081967213114754,1025.4588961601257
0.05092213114754098,1020.7405686378479
0.05102459016393442,1016.5863633155823
0.05112704918032787,1013.0147695541381
0.05122950819672131,1010.0391626358032
0.051331967213114754,1007.6898336410522
0.051434426229508196,1005.895185470581
0.05153688524590164,1004.7626137733458
0.051639344262295085,1004.2645812034607
0.051741803278688527,1004.4250845909118
0.05184426229508197,1005.2811026573181
