{'sampling_frequency': 9760, 'signal_level': 100, 'signal_level_units': 'mVrms', 'signal_frequency': 205, 'signal_frequency_units': 'Hz'}
Time (s),Voltage (mV)
0.0,1075.384497642517
0.00010245901639344262,1259.3052506446838
0.00020491803278688525,1441.3455963134766
0.00030737704918032784,1617.945349216461
0.0004098360655737705,1786.4381074905396
0.0005122950819672131,1943.5980677604673
0.0006147540983606557,2087.1065855026245
0.0007172131147540983,2214.3519401550293
0.000819672131147541,2322.9246139526367
0.0009221311475409836,2410.743570327759
0.0010245901639344263,2476.7018079757686
0.001127049180327869,2519.8453545570374
0.0012295081967213114,2539.286720752716
0.001331967213114754,2534.337866306305
0.0014344262295081967,2505.254888534546
0.0015368852459016393,2452.8021454811096
0.001639344262295082,2377.753436565399
0.0017418032786885246,2281.3676118850703
0.0018442622950819673,2165.2575731277466
0.00194672131147541,2031.2624216079712
0.0020491803278688526,1881.9376230239868
0.002151639344262295,1719.8819160461426
0.002254098360655738,1547.7341651916504
0.0023565573770491805,1368.5915350914
0.0024590163934426227,1185.4068160057068
0.0025614754098360654,1001.663875579834
0.002663934426229508,820.2081084251404
0.0027663934426229507,644.5135474205017
0.0028688524590163933,477.5502920150756
0.002971311475409836,322.11023569107056
0.0030737704918032786,180.85466623306274
0.0031762295081967213,61.75564527511596
0.003278688524590164,5.8760762214660645
0.0033811475409836066,0.9988188743591307
0.0034836065573770492,0.7187247276306151
0.003586065573770492,0.45397281646728516
0.0036885245901639345,0.29582977294921875
0.003790983606557377,0.385129451751709
0.00389344262295082,0.6089687347412109
0.003995901639344262,0.8595585823059082
0.004098360655737705,2.0688414573669434
0.004200819672131147,38.671088218688965
0.00430327868852459,149.9270796775818
0.004405737704918033,287.6708507537842
0.004508196721311476,439.90595340728754
0.004610655737704918,604.3196439743042
0.004713114754098361,778.2325387001036
0.004815573770491803,958.6706042289733
0.0049180327868852455,1142.1814441680908
0.0050204918032786885,1325.7615208625793
0.005122950819672131,1506.087076663971
0.005225409836065574,1680.073535442352
0.005327868852459016,1844.801151752472
0.005430327868852459,1997.3509669303892
0.005532786885245901,2135.3819131851196
0.0056352459016393444,2255.8094143867493
0.005737704918032787,2356.8726539611816
0.00584016393442623,2436.927652359009
0.005942622950819672,2494.6455359458923
0.006045081967213115,2529.4295310974117
0.006147540983606557,2540.1254296302795
0.00625,2526.4389753341675
0.0063524590163934426,2488.7568712234493
0.006454918032786886,2427.9898166656494
0.006557377049180328,2345.183050632477
0.00665983606557377,2241.382598876953
0.006762295081967213,2118.536138534546
0.006864754098360655,1978.6098361015318
0.0069672131147540985,1824.4085669517515
0.007069672131147541,1658.2159638404846
0.007172131147540984,1483.2621574401853
0.007274590163934426,1302.2119760513303
0.007377049180327869,1118.4119939804075
0.007479508196721311,935.0970625877379
0.007581967213114754,755.3848028182983
0.007684426229508197,582.5218677520752
0.00778688524590164,419.5015668869018
0.007889344262295083,268.96748542785645
0.007991803278688524,133.76383781433105
0.008094262295081967,31.763541698455807
0.00819672131147541,1.9803285598754883
0.008299180327868852,0.8898496627807616
0.008401639344262295,0.594806671142578
0.008504098360655738,0.3540515899658203
0.00860655737704918,0.28717517852783203
0.008709016393442622,0.44571161270141596
0.008811475409836065,0.707709789276123
0.008913934426229508,0.9665608406066893
0.009016393442622951,6.93429708480835
0.009118852459016393,72.9617714881897
0.009221311475409836,198.25866222381592
0.009323770491803279,341.2600994110107
0.009426229508196722,498.2607364654541
0.009528688524590163,666.4281606674194
0.009631147540983606,843.1317687034606
0.00973360655737705,1025.0741600990293
0.009836065573770491,1208.896565437317
0.009938524590163934,1391.7783737182617
0.010040983606557377,1570.120847225189
0.01014344262295082,1741.1497950553894
0.010245901639344262,1901.6716718673706
0.010348360655737705,2049.1573691368103
0.010450819672131148,2180.9160947799683
0.01055327868852459,2294.7452545166016
0.010655737704918032,2388.6082649230957
0.010758196721311475,2460.623931884765
0.010860655737704918,2510.0483536720276
0.010963114754098361,2536.0266923904414
0.011065573770491803,2537.8056049346924
0.011168032786885246,2515.2682542800903
0.011270491803278689,2469.2368268966675
0.011372950819672132,2400.299441814422
0.011475409836065573,2309.684658050537
0.011577868852459016,2198.822057247162
0.01168032786885246,2069.427216053009
0.0117827868852459,1923.9029645919798
0.011885245901639344,1764.9522900581358
0.011987704918032787,1595.307683944702
0.01209016393442623,1417.8444385528564
0.012192622950819671,1235.349726676941
0.012295081967213115,1051.4604449272156
0.012397540983606558,869.1179752349854
0.0125,691.5319919586182
0.012602459016393442,521.8980073928833
0.012704918032786885,363.01656961441034
0.012807377049180328,217.64731407165527
0.012909836065573771,90.24853706359863
0.013012295081967213,13.198649883270262
0.013114754098360656,1.119983196258545
0.013217213114754099,0.7930755615234374
0.01331967213114754,0.5125880241394043
0.013422131147540983,0.31943321228027344
0.013524590163934426,0.3312349319458008
0.01362704918032787,0.5381584167480469
0.01372950819672131,0.808417797088623
0.013831967213114754,1.135718822479248
0.013934426229508197,20.453953742980953
0.01403688524590164,115.21192789077759
0.014139344262295081,248.40298891067502
0.014241803278688524,396.96106910705566
0.014344262295081968,558.3629608154297
0.01444672131147541,730.0055980682373
0.014549180327868852,908.936583995819
0.014651639344262295,1091.9010043144226
0.014754098360655738,1275.703740119934
0.01485655737704918,1457.3266983032224
0.014959016393442623,1633.319056034088
0.015061475409836066,1800.8755445480347
0.015163934426229509,1956.948959827423
0.01526639344262295,2099.2446541786194
0.015368852459016393,2224.896383285522
0.015471311475409836,2331.570553779602
0.01557377049180328,2417.4752712249756
0.01567622950819672,2481.287956237793
0.015778688524590165,2522.187209129333
0.015881147540983607,2539.629364013672
0.015983606557377048,2532.7084422111507
0.016086065573770493,2501.401627063751
0.016188524590163934,2446.903645992279
0.016290983606557376,2369.878149032593
0.01639344262295082,2271.751177310943
0.016495901639344262,2153.9865374565125
0.016598360655737703,2018.4815526008606
0.016700819672131148,1867.9097056388853
0.01680327868852459,1704.8123002052307
0.016905737704918034,1531.9013714790344
0.017008196721311476,1352.2095680236816
0.017110655737704917,1168.8269734382627
0.01721311475409836,985.0879669189453
0.017315573770491803,803.9886116981506
0.017418032786885244,628.9816975593566
0.01752049180327869,463.0971193313598
0.01762295081967213,308.92417430877686
0.017725409836065575,169.23547983169553
0.017827868852459017,53.42087745666504
0.017930327868852458,4.441380500793457
0.018032786885245903,0.9681344032287597
0.018135245901639344,0.6978750228881836
0.018237704918032786,0.4417777061462402
0.01834016393442623,0.3233671188354492
0.018442622950819672,0.40243864059448237
0.018545081967213113,0.6274580955505371
0.018647540983606558,0.8867025375366211
0.01875,2.7509808540344234
0.018852459016393444,46.386659145355225
0.018954918032786885,162.0085000991821
0.019057377049180327,300.9312629699707
0.01915983606557377,454.36620712280273
0.019262295081967213,619.7645545005797
0.019364754098360654,794.4370865821838
0.0194672131147541,975.2653956413269
0.01956967213114754,1158.835244178772
0.019672131147540982,1342.2685861587524
0.019774590163934427,1522.1763610839841
0.019877049180327868,1695.5357551574705
0.019979508196721313,1859.2126250267027
0.020081967213114754,2010.491394996643
0.020184426229508196,2147.114396095276
0.02028688524590164,2266.0112142562866
0.02038934426229508,2365.3805136680603
0.020491803278688523,2443.5869693756104
0.020594262295081968,2499.2859721183772
0.02069672131147541,2531.5959334373474
0.020799180327868854,2539.9515509605408
0.020901639344262295,2523.947238922119
0.021004098360655737,2484.4315409660335
0.02110655737704918,2421.7754244804382
0.021209016393442623,2337.0087862014766
0.021311475409836064,2231.3652992248535
0.02141393442622951,2106.7454338073726
0.02151639344262295,1965.3875827789307
0.021618852459016392,1810.081672668457
0.021721311475409837,1642.9539799690244
0.021823770491803278,1467.2712206840515
0.021926229508196723,1285.841417312622
0.022028688524590164,1101.991081237793
0.022131147540983605,918.8956618309021
0.02223360655737705,739.6476030349731
0.02233606557377049,567.5576806068419
0.022438524590163933,405.4756164550781
0.022540983606557378,256.18425607681274
0.02264344262295082,122.70365953445433
0.022745901639344264,26.175034046173092
0.022848360655737705,1.6073942184448242
0.022950819672131147,0.8627057075500488
0.02305327868852459,0.5790710449218749
0.023155737704918033,0.3571987152099609
0.023258196721311474,0.30527114868164057
0.02336065573770492,0.47600269317626953
0.02346311475409836,0.738394260406494
0.0235655737704918,0.9811162948608397
0.023668032786885247,9.311163425445557
0.023770491803278688,82.93343782424927
0.023872950819672133,210.51553487777707
0.023975409836065574,355.07558584213257
0.024077868852459015,513.207221031189
0.02418032786885246,682.2176814079284
0.0242827868852459,859.4767570495605
0.024385245901639343,1041.7558908462522
0.024487704918032788,1225.650680065155
0.02459016393442623,1408.198893070221
0.02469262295081967,1585.9386920928955
0.024795081967213115,1756.103754043579
0.024897540983606557,1915.6425476074216
0.025,2061.8922114372253
0.025102459016393443,2192.2540068626404
0.025204918032786884,2304.188597202301
0.02530737704918033,2395.9505081176753
0.02540983606557377,2466.1321878433228
0.02551229508196721,2513.441741466522
0.025614754098360656,2537.212371826172
0.025717213114754098,2536.846125125885
0.025819672131147543,2512.202954292297
0.025922131147540984,2463.9406085014343
0.026024590163934425,2393.034303188324
0.02612704918032787,2300.552487373352
0.02622950819672131,2187.8913044929504
0.026331967213114753,2057.0263624191284
0.026434426229508198,1910.250735282898
0.02653688524590164,1750.2945542335508
0.02663934426229508,1579.7329545021057
0.026741803278688525,1401.728010177612
0.026844262295081966,1218.9779877662659
0.02694672131147541,1035.0993275642395
0.027049180327868853,852.9535531997681
0.027151639344262294,675.9041547775269
0.02725409836065574,507.2689890861511
0.02735655737704918,349.64050054550165
0.02745901639344262,205.73426485061643
0.027561475409836066,80.60102462768553
0.027663934426229508,10.245466232299805
0.027766393442622953,1.0538935661315916
0.027868852459016394,0.7659316062927245
0.027971311475409835,0.4834771156311035
0.02807377049180328,0.3005504608154297
0.02817622950819672,0.3509044647216797
0.028278688524590163,0.5625486373901367
0.028381147540983608,0.8178591728210449
0.02848360655737705,1.2883543968200684
0.02858606557377049,25.5373477935791
0.028688524590163935,126.38933658599852
0.028790983606557376,261.09652519226074
0.02889344262295082,410.78402996063227
0.028995901639344263,573.1544494628906
0.029098360655737704,745.5252528190613
0.02920081967213115,925.0290155410767
0.02930327868852459,1108.2589745521545
0.02940573770491803,1292.0263051986694
0.029508196721311476,1473.283803462982
0.029610655737704918,1648.7025976181028
0.02971311475409836,1815.4345393180847
0.029815573770491804,1970.2880501747131
0.029918032786885245,2111.0204100608826
0.03002049180327869,2235.0021958351135
0.03012295081967213,2339.8431658744807
0.030225409836065573,2423.952841758728
0.030327868852459017,2486.055850982666
0.03043032786885246,2524.904751777649
0.0305327868852459,2539.9944305419917
0.030635245901639345,2530.562102794647
0.030737704918032786,2497.2694516181946
0.03084016393442623,2440.8411026000977
0.030942622950819672,2361.98673248291
0.031045081967213114,2262.0131850242615
0.03114754098360656,2142.532968521118
0.03125,2005.4398655891416
0.03135245901639344,1853.620970249176
0.03145491803278688,1689.4610166549683
0.03155737704918033,1515.847098827362
0.03165983606557377,1335.7642650604246
0.031762295081967214,1152.2506713867188
0.031864754098360655,968.7158346176146
0.031967213114754096,788.0047559738159
0.03206967213114754,613.5863542556762
0.032172131147540986,448.6140489578247
0.03227459016393443,295.5638408660888
0.03237704918032787,157.28269815444946
0.03247950819672131,45.665967464447014
0.03258196721311475,3.3430337905883785
0.0326844262295082,0.9449243545532225
0.03278688524590164,0.6660103797912598
0.03288934426229508,0.4047989845275879
0.032991803278688524,0.2899289131164551
0.033094262295081965,0.41738748550415034
0.033196721311475406,0.6640434265136719
0.033299180327868855,0.9173870086669921
0.033401639344262296,3.74075174331665
0.03350409836065574,54.35203313827514
0.03360655737704918,173.56553077697754
0.03370901639344262,313.88601064682
0.03381147540983607,468.5837388038635
0.03391393442622951,634.9199295043944
0.03401639344262295,810.2348685264586
0.03411885245901639,991.547441482544
0.034221311475409834,1175.308871269226
0.03432377049180328,1358.557319641113
0.03442622950819672,1537.9615545272827
0.034528688524590165,1710.5735063552856
0.034631147540983606,1873.2995510101318
0.03473360655737705,2023.3733654022217
0.03483606557377049,2158.358681201935
0.03493852459016394,2275.604832172394
0.03504098360655738,2373.20898771286
0.03514344262295082,2449.3163108825684
0.03524590163934426,2502.888250350952
0.0353483606557377,2533.375239372253
0.03545081967213115,2539.6860122680664
0.03555327868852459,2521.5888619422913
0.035655737704918034,2479.8296570777893
0.035758196721311475,2415.0346755981445
0.035860655737704916,2328.3801555633545
0.03596311475409836,2221.0163712501526
0.036065573770491806,2094.8709368705745
0.03616803278688525,1952.199947834015
0.03627049180327869,1795.6981301307678
0.03637295081967213,1627.7191400527952
0.03647540983606557,1451.4034152030943
0.03657786885245902,1269.5810079574583
0.03668032786885246,1085.6307506561277
0.0367827868852459,902.6596426963805
0.036885245901639344,723.9831805229187
0.036987704918032785,552.684760093689
0.037090163934426226,391.6455745697021
0.037192622950819675,243.74799728393555
0.037295081967213116,112.01326847076415
0.03739754098360656,21.31783962249756
0.0375,1.3839483261108398
0.03760245901639344,0.8391022682189941
0.03770491803278689,0.5719900131225586
0.03780737704918033,0.3465771675109863
0.03790983606557377,0.30448436737060547
0.03801229508196721,0.49921274185180664
0.038114754098360654,0.7667183876037598
0.038217213114754095,1.0035395622253418
0.03831967213114754,12.259626388549805
0.038422131147540985,93.2268977165222
0.038524590163934426,222.94313907623288
0.03862704918032787,368.75771284103394
0.03872950819672131,527.9518961906433
0.03883196721311476,697.8632211685181
0.0389344262295082,875.7084488868712
0.03903688524590164,1058.2192897796629
0.03913934426229508,1242.0889019966123
0.03924180327868852,1424.4219303131104
0.039344262295081964,1601.592493057251
0.03944672131147541,1771.030569076538
0.03954918032786885,1929.3836832046507
0.039651639344262295,2074.3516802787776
0.039754098360655736,2203.1501412391663
0.03985655737704918,2313.3864641189575
0.039959016393442626,2403.260886669159
0.04006147540983607,2471.4461088180537
0.04016393442622951,2516.800904273987
0.04026639344262295,2538.427948951721
0.04036885245901639,2535.8480930328365
0.04047131147540984,2508.8673949241634
0.04057377049180328,2458.588922023773
0.04067622950819672,2385.803782939911
0.04077868852459016,2291.564297676086
0.040881147540983605,2177.225303649902
0.040983606557377046,2044.7136282920835
0.041086065573770494,1896.6614484786985
0.041188524590163936,1735.6946468353271
0.04129098360655738,1564.3612146377563
0.04139344262295082,1385.7315659523008
0.04149590163934426,1202.7238726615906
0.04159836065573771,1018.909728527069
0.04170081967213115,837.0936155319213
0.04180327868852459,660.6653809547423
0.04190573770491803,492.7568078041076
0.042008196721311473,336.11297607421875
0.042110655737704915,193.44159364700317
0.04221311475409836,71.06602191925049
0.042315573770491804,7.845783233642578
0.042418032786885246,1.0129809379577637
0.04252049180327869,0.7301330566406249
0.04262295081967213,0.4791498184204101
0.04272540983606558,0.30409097671508784
0.04282786885245902,0.3705739974975586
0.04293032786885246,0.5881190299987793
0.0430327868852459,0.8453965187072754
0.04313524590163934,1.5782833099365232
0.043237704918032784,31.575894355773926
0.04334016393442623,137.7842903137207
0.04344262295081967,274.0174412727356
0.043545081967213115,425.0385403633117
0.043647540983606556,588.5195016860961
0.04375,761.6680383682251
0.043852459016393446,941.5699124336242
0.04395491803278689,1124.9037265777588
0.04405737704918033,1308.576250076294
0.04415983606557377,1489.406132698059
0.04426229508196721,1664.1203641891477
0.04436475409836065,1829.8444390296936
0.0444672131147541,1983.5551500320435
0.04456967213114754,2122.991681098938
0.04467213114754098,2245.3078508377075
0.044774590163934425,2348.449766635895
0.044877049180327866,2430.5905222892757
0.044979508196721314,2490.4390096664424
0.045081967213114756,2527.2426724433894
0.0451844262295082,2540.1450991630554
0.04528688524590164,2528.643143177032
0.04538934426229508,2493.140423297882
0.04549180327868853,2434.530329704284
0.04559426229508197,2353.752279281616
0.04569672131147541,2251.946711540222
0.04579918032786885,2130.8433651924133
0.04590163934426229,1992.3242211341856
0.046004098360655735,1839.3633127212522
0.04610655737704918,1674.2356181144712
0.046209016393442624,1499.8734712600708
0.046311475409836066,1319.3067669868467
0.04641393442622951,1135.6936454772947
0.04651639344262295,952.2429943084716
0.0466188524590164,771.9559907913207
0.04672131147540984,598.3361721038818
0.04682377049180328,434.2969894409179
0.04692622950819672,282.50484466552734
0.04702868852459016,145.73235511779782
0.0471311475409836,38.52277994155884
0.04723360655737705,2.5590062141418457
0.04733606557377049,0.9177803993225098
0.047438524590163934,0.637686252593994
0.047540983606557376,0.3996849060058593
0.04764344262295082,0.30291080474853516
0.047745901639344265,0.4405975341796875
0.04784836065573771,0.6919741630554199
0.04795081967213115,0.9413838386535645
0.04805327868852459,5.0479888916015625
0.04815573770491803,63.06996345520019
0.04825819672131147,185.54270267486572
0.04836065573770492,327.2801756858825
0.04846311475409836,483.05382728576654
0.0485655737704918,650.2873420715332
0.048668032786885244,826.2470483779907
0.048770491803278686,1007.89715051651
0.048872950819672134,1191.7270302772522
0.048975409836065575,1374.7878313064575
0.04907786885245902,1553.6688566207886
0.04918032786885246,1725.5140900611875
0.0492827868852459,1887.2137784957886
0.04938524590163934,2036.0763430595398
0.04948770491803279,2169.5215344429016
0.04959016393442623,2284.8798036575317
0.04969262295081967,2380.515432357788
0.04979508196721311,2454.635739326477
0.049897540983606554,2506.3705444335938
0.05,2534.6742153167725
0.050102459016393444,2538.748955726623
0.050204918032786885,2518.453538417816
0.05030737704918033,2474.5023608207703
0.05040983606557377,2407.649946212768
0.050512295081967216,2319.189763069153
0.05061475409836066,2210.0903391838074
0.0507172131147541,2082.4504137039185
0.05081967213114754,1938.448190689087
0.05092213114754098,1780.7024717330933
0.05102459016393442,1611.8493676185608
0.05112704918032787,1435.0375771522522
0.05122950819672131,1252.9287815093992
0.051331967213114754,1069.0162897109985
0.051434426229508196,886.3000988960266
0.05153688524590164,708.1311106681824
0.051639344262295085,537.6328468322754
0.051741803278688527,377.6621103286743
0.05184426229508197,230.91166019439697
0.05194672131147541,101.23161077499388
0.05204918032786885,17.026734352111816
