{'sampling_frequency': 9760, 'signal_level': 100, 'signal_level_units': 'mVrms', 'signal_frequency': 205, 'signal_frequency_units': 'Hz'}
Time (s),Voltage (mV)
0.0,0.8017301559448242
0.00010245901639344262,0.5263566970825195
0.00020491803278688525,0.3233671188354492
0.00030737704918032784,0.3056645393371582
0.0004098360655737705,0.5098342895507812
0.0005122950819672131,0.7706522941589355
0.0006147540983606557,1.0428786277770996
0.0007172131147540983,15.742313861846924
0.000819672131147541,103.4542679786682
0.0009221311475409836,234.81016159057617
0.0010245901639344263,381.87571763992304
0.001127049180327869,542.1029448509216
0.0012295081967213114,712.8419637680054
0.001331967213114754,891.2076473236084
0.0014344262295081967,1073.9698648452759
0.0015368852459016393,1257.8253149986267
0.001639344262295082,1439.8290753364563
0.0017418032786885246,1616.4445638656614
0.0018442622950819673,1785.0175738334656
0.00194672131147541,1942.3616409301756
0.0020491803278688526,2086.1109137535095
0.002151639344262295,2213.3720040321346
0.002254098360655738,2321.963560581207
0.0023565573770491805,2409.899353981018
0.0024590163934426227,2476.289141178131
0.0025614754098360654,2519.5428371429443
0.002663934426229508,2539.3280267715454
0.0027663934426229507,2534.504663944244
0.0028688524590163933,2505.6136608123775
0.002971311475409836,2453.356039524078
0.0030737704918032786,2378.6664962768555
0.0031762295081967213,2282.495069503784
0.003278688524590164,2166.542780399322
0.0033811475409836066,2032.6565980911253
0.0034836065573770492,1883.356976509094
0.003586065573770492,1721.3362812995908
0.0036885245901639345,1549.2286562919614
0.003790983606557377,1370.1674580574036
0.00389344262295082,1186.966609954834
0.003995901639344262,1003.1965255737305
0.004098360655737705,821.6963052749633
0.004200819672131147,645.9171652793883
0.00430327868852459,478.9684653282165
0.004405737704918033,323.4288811683654
0.004508196721311476,182.1190237998962
0.004610655737704918,62.58294582366943
0.004713114754098361,6.0291051864624015
0.004815573770491803,1.0055065155029297
0.0049180327868852455,0.7226586341857909
0.0050204918032786885,0.44374465942382807
0.005122950819672131,0.29228925704956055
0.005225409836065574,0.3662467002868652
0.005327868852459016,0.601494312286377
0.005430327868852459,0.8646726608276367
0.005532786885245901,2.0200610160827637
0.0056352459016393444,38.10893297195434
0.005737704918032787,148.94399642944336
0.00584016393442623,286.3407969474792
0.005942622950819672,438.5629177093506
0.006045081967213115,602.9648065567015
0.006147540983606557,776.8218398094176
0.00625,957.2182059288025
0.0063524590163934426,1140.729832649231
0.006454918032786886,1324.3075489997861
0.006557377049180328,1504.7259449958801
0.00665983606557377,1678.718304634094
0.006762295081967213,1843.5899019241333
0.006864754098360655,1996.1987257003784
0.0069672131147540985,2134.346902370453
0.007069672131147541,2255.0686597824097
0.007172131147540984,2356.399405002594
0.007274590163934426,2436.59405708313
0.007377049180327869,2494.441759586334
0.007479508196721311,2529.1966438293457
0.007581967213114754,2540.206861495971
0.007684426229508197,2526.740312576294
0.00778688524590164,2489.2478227615356
0.007889344262295083,2428.6967396736145
0.007991803278688524,2345.8868265151978
0.008094262295081967,2242.3231959342957
0.00819672131147541,2119.6962475776672
0.008299180327868852,1979.8604249954224
0.008401639344262295,1825.7224917411802
0.008504098360655738,1659.734845161438
0.00860655737704918,1484.7649097442625
0.008709016393442622,1303.7603616714478
0.008811475409836065,1120.0237154960632
0.008913934426229508,936.706817150116
0.009016393442622951,756.8958163261414
0.009118852459016393,584.0108513832092
0.009221311475409836,420.8984971046448
0.009323770491803279,270.2117800712585
0.009426229508196722,134.91843938827515
0.009528688524590163,32.47557878494262
0.009631147540983606,2.0322561264038086
0.00973360655737705,0.9087324142456055
0.009836065573770491,0.6215572357177734
0.009938524590163934,0.37411451339721674
0.010040983606557377,0.29976367950439453
0.01014344262295082,0.4508256912231445
0.010245901639344262,0.7010221481323241
0.010348360655737705,0.9567260742187499
0.010450819672131148,6.741929054260253
0.01055327868852459,72.00819253921509
0.010655737704918032,197.1123218536377
0.010758196721311475,340.2317762374878
0.010860655737704918,497.15648889541626
0.010963114754098361,665.1763916015625
0.011065573770491803,841.7021870613097
0.011168032786885246,1023.6138939857482
0.011270491803278689,1207.4772119522095
0.011372950819672132,1390.3963923454282
0.011475409836065573,1568.745946884155
0.011577868852459016,1739.807152748108
0.01168032786885246,1900.4588484764097
0.0117827868852459,2048.1329798698425
0.011885245901639344,2180.1434755325317
0.011987704918032787,2294.0300703048706
0.01209016393442623,2387.8883600234985
0.012192622950819671,2460.191595554352
0.012295081967213115,2509.9889516830444
0.012397540983606558,2536.245417594909
0.0125,2538.1407737731934
0.012602459016393442,2515.7584190368652
0.012704918032786885,2469.9095249176025
0.012807377049180328,2401.126742362976
0.012909836065573771,2310.725176334381
0.013012295081967213,2199.9825596809387
0.013114754098360656,2070.7340598106384
0.013217213114754099,1925.4395484924316
0.01331967213114754,1766.678488254547
0.013422131147540983,1597.0201134681702
0.013524590163934426,1419.5934534072876
0.01362704918032787,1237.1278524398804
0.01372950819672131,1053.2118201255798
0.013831967213114754,870.758020877838
0.013934426229508197,693.162989616394
0.01403688524590164,523.5199570655823
0.014139344262295081,364.57518339157104
0.014241803278688524,219.09302473068237
0.014344262295081968,91.37284755706787
0.01444672131147541,13.572764396667479
0.014549180327868852,1.1172294616699219
0.014651639344262295,0.7816672325134276
0.014754098360655738,0.5263566970825195
0.01485655737704918,0.31746625900268555
0.014959016393442623,0.32376050949096674
0.015061475409836066,0.5444526672363281
0.015163934426229509,0.8013367652893065
0.01526639344262295,1.1215567588806152
0.015368852459016393,20.208871364593506
0.015471311475409836,114.51877355575562
0.01557377049180328,247.5760817527771
0.01567622950819672,395.81866264343256
0.015778688524590165,557.1206331253052
0.015881147540983607,728.6932468414307
0.015983606557377048,907.5345396995544
0.016086065573770493,1090.5190229415894
0.016188524590163934,1274.3414282798767
0.016290983606557376,1455.9691071510315
0.01639344262295082,1631.9689393043518
0.016495901639344262,1799.742579460144
0.016598360655737703,1955.879724025726
0.016700819672131148,2098.1596827507014
0.01680327868852459,2223.8983511924744
0.016905737704918034,2330.7283043861385
0.017008196721311476,2416.860795021057
0.017110655737704917,2481.190395355224
0.01721311475409836,2522.3547935485835
0.017315573770491803,2539.842188358307
0.017418032786885244,2532.9409360885616
0.01752049180327869,2502.0585894584656
0.01762295081967213,2447.805690765381
0.017725409836065575,2371.0516333580017
0.017827868852459017,2272.892010211944
0.017930327868852458,2155.2147030830383
0.018032786885245903,2019.7569251060484
0.018135245901639344,1869.3235516548157
0.018237704918032786,1706.3657999038694
0.01834016393442623,1533.5547924041748
0.018442622950819672,1353.9416670799253
0.018545081967213113,1170.5350756645203
0.018647540983606558,986.8318676948546
0.01875,805.6943535804749
0.018852459016393444,630.532443523407
0.018954918032786885,464.4814610481262
0.019057377049180327,310.2129220962524
0.01915983606557377,170.40070295333862
0.019262295081967213,54.41182851791382
0.019364754098360654,4.607391357421875
0.0194672131147541,0.977182388305664
0.01956967213114754,0.6904006004333496
0.019672131147540982,0.42879581451416016
0.019774590163934427,0.2879619598388672
0.019877049180327868,0.40401220321655273
0.019979508196721313,0.6439805030822753
0.020081967213114754,0.8937835693359374
0.020184426229508196,2.67033576965332
0.02028688524590164,45.58453559875488
0.02038934426229508,160.964834690094
0.020491803278688523,299.86045360565186
0.020594262295081968,453.1632184982299
0.02069672131147541,618.4478759765625
0.020799180327868854,793.0055379867554
0.020901639344262295,973.8299131393431
0.021004098360655737,1157.435166835785
0.02110655737704918,1340.838611125946
0.021209016393442623,1520.801067352295
0.021311475409836064,1694.1836714744568
0.02141393442622951,1858.0001950263975
0.02151639344262295,2009.3832135200498
0.021618852459016392,2146.016836166382
0.021721311475409837,2264.982891082763
0.021823770491803278,2364.490270614624
0.021926229508196723,2442.8261518478394
0.022028688524590164,2498.783218860626
0.022131147540983605,2531.553053855896
0.02223360655737705,2540.1537537574764
0.02233606557377049,2524.35872554779
0.022438524590163933,2484.835946559906
0.022540983606557378,2422.282898426056
0.02264344262295082,2337.5839233398438
0.022745901639344264,2232.1646690368652
0.022848360655737705,2107.7324509620667
0.022950819672131147,1966.553199291229
0.02305327868852459,1811.2826943397522
0.023155737704918033,1644.3465828895567
0.023258196721311474,1468.7511563301086
0.02336065573770492,1287.3953104019165
0.02346311475409836,1103.5445809364319
0.0235655737704918,920.3952670097351
0.023668032786885247,741.1247849464417
0.023770491803278688,568.9955234527587
0.023872950819672133,406.8485498428345
0.023975409836065574,257.3899984359741
0.024077868852459015,123.72450828552245
0.02418032786885246,26.669132709503174
0.0242827868852459,1.6361117362976072
0.024385245901639343,0.8564114570617675
0.024487704918032788,0.586545467376709
0.02459016393442623,0.355231761932373
0.02469262295081967,0.29582977294921875
0.024795081967213115,0.46105384826660156
0.024897540983606557,0.7195115089416504
0.025,0.9795427322387695
0.025102459016393443,9.020841121673584
0.025204918032786884,81.8559408187866
0.02530737704918033,209.28854942321775
0.02540983606557377,353.56221199035645
0.02551229508196721,511.5223288536072
0.025614754098360656,680.5811762809752
0.025717213114754098,857.9142093658447
0.025819672131147543,1040.1665925979612
0.025922131147540984,1224.0137815475462
0.026024590163934425,1406.6465735435486
0.02612704918032787,1584.5508098602295
0.02622950819672131,1754.8028111457822
0.026331967213114753,1914.3313765525818
0.026434426229508198,2060.6876492500305
0.02653688524590164,2191.171395778656
0.02663934426229508,2303.3884406089783
0.026741803278688525,2395.4131364822388
0.026844262295081966,2465.6616926193237
0.02694672131147541,2513.1821036338806
0.027049180327868853,2537.15808391571
0.027151639344262294,2536.966109275818
0.02725409836065574,2512.573528289795
0.02735655737704918,2464.604651927948
0.02745901639344262,2393.8541293144226
0.027561475409836066,2301.492691040039
0.027663934426229508,2188.9601469039912
0.027766393442622953,2058.0775022506714
0.027868852459016394,1911.4399552345276
0.027971311475409835,1751.6517519950864
0.02807377049180328,1581.2569499015808
0.02817622950819672,1403.2299757003784
0.028278688524590163,1220.4787731170654
0.028381147540983608,1036.5611672401426
0.02848360655737705,854.3516635894774
0.02858606557377049,677.2271275520324
0.028688524590163935,508.3972334861755
0.028790983606557376,350.6806254386902
0.02889344262295082,206.65637254714963
0.028995901639344263,81.36105537414551
0.029098360655737704,10.511791706085203
0.02920081967213115,1.072382926940918
0.02930327868852459,0.7797002792358397
0.02940573770491803,0.4968523979187011
0.029508196721311476,0.2891421318054199
0.029610655737704918,0.3402829170227051
0.02971311475409836,0.5625486373901367
0.029815573770491804,0.8300542831420898
0.029918032786885245,1.2903213500976562
0.03002049180327869,25.083768367767334
0.03012295081967213,125.29492378234863
0.030225409836065573,259.94153022766113
0.030327868852459017,409.6081852912903
0.03043032786885246,571.8743562698364
0.0305327868852459,744.2317843437194
0.030635245901639345,923.6356258392333
0.030737704918032786,1106.8773865699768
0.03084016393442623,1290.6856298446653
0.030942622950819672,1471.9655513763428
0.031045081967213114,1647.4048018455505
0.03114754098360656,1814.1690015792847
0.03125,1969.2904114723203
0.03135245901639344,2110.226941108703
0.03145491803278688,2234.280717372894
0.03155737704918033,2339.2731428146362
0.03165983606557377,2423.4949350357056
0.031762295081967214,2485.734057426452
0.031864754098360655,2524.936616420746
0.031967213114754096,2540.1218891143794
0.03206967213114754,2530.9979796409607
0.032172131147540986,2497.8890419006348
0.03227459016393443,2441.508686542511
0.03237704918032787,2362.7845287323
0.03247950819672131,2262.9289984703064
0.03258196721311475,2143.694651126861
0.0326844262295082,2006.717598438263
0.03278688524590164,1854.9895763397215
0.03288934426229508,1691.0286784172058
0.032991803278688524,1517.539072036743
0.033094262295081965,1337.4837756156921
0.033196721311475406,1153.9957523345947
0.033299180327868855,970.4015135765075
0.033401639344262296,789.6278858184814
0.03350409836065574,615.2193188667297
0.03360655737704918,450.11404752731323
0.03370901639344262,297.0142722129822
0.03381147540983607,158.62691402435303
0.03391393442622951,46.56447172164917
0.03401639344262295,3.4685254096984863
0.03411885245901639,0.9626269340515136
0.034221311475409834,0.6782054901123047
0.03432377049180328,0.41542053222656244
0.03442622950819672,0.29032230377197266
0.034528688524590165,0.4189610481262207
0.034631147540983606,0.6660103797912598
0.03473360655737705,0.9169936180114745
0.03483606557377049,3.6439776420593257
0.03493852459016394,53.699791431427
0.03504098360655738,172.7641940116882
0.03514344262295082,312.9111886024475
0.03524590163934426,467.42441654205317
0.0353483606557377,633.6945176124572
0.03545081967213115,808.9728713035583
0.03555327868852459,990.2468919754028
0.035655737704918034,1173.9363312721252
0.035758196721311475,1357.2056293487549
0.035860655737704916,1536.6794943809507
0.03596311475409836,1709.412610530853
0.036065573770491806,1872.1736669540405
0.03616803278688525,2022.3025560379026
0.03627049180327869,2157.4570298194885
0.03637295081967213,2274.755108356476
0.03647540983606557,2372.4037170410156
0.03657786885245902,2448.9020705223083
0.03668032786885246,2502.8040647506714
0.0367827868852459,2533.3760261535645
0.036885245901639344,2539.7273182868958
0.036987704918032785,2521.7379570007324
0.037090163934426226,2480.235242843628
0.037192622950819675,2415.63538312912
0.037295081967213116,2329.1736245155334
0.03739754098360656,2222.042334079742
0.0375,2096.013736724853
0.03760245901639344,1953.3974289894102
0.03770491803278689,1796.9518661499021
0.03780737704918033,1629.0582418441772
0.03790983606557377,1452.8156876564024
0.03801229508196721,1270.9987878799438
0.038114754098360654,1087.1126532554626
0.038217213114754095,904.1564941406249
0.03831967213114754,725.3340840339661
0.038422131147540985,553.9502978324889
0.038524590163934426,392.76909828186035
0.03862704918032787,244.68348026275632
0.03872950819672131,112.80241012573242
0.03883196721311476,21.73758745193481
0.0389344262295082,1.3894557952880857
0.03903688524590164,0.8461833000183104
0.03913934426229508,0.5684494972229004
0.03924180327868852,0.33398866653442383
0.039344262295081964,0.3099918365478515
0.03944672131147541,0.5051136016845703
0.03954918032786885,0.7466554641723633
0.039651639344262295,1.0165214538574217
0.039754098360655736,12.004315853118896
0.03985655737704918,92.31226444244383
0.039959016393442626,221.8420386314392
0.04006147540983607,367.48548746109003
0.04016393442622951,526.5974521636963
0.04026639344262295,696.4053153991698
0.04036885245901639,874.189567565918
0.04047131147540984,1056.6949009895322
0.04057377049180328,1240.5593991279602
0.04067622950819672,1422.8707909584043
0.04077868852459016,1600.2136588096619
0.040881147540983605,1769.6910738945007
0.040983606557377046,1928.183841705322
0.041086065573770494,2073.279297351837
0.041188524590163936,2202.172172069549
0.04129098360655738,2312.6295804977417
0.04139344262295082,2402.7148604393
0.04149590163934426,2470.9712862968445
0.04159836065573771,2516.506648063659
0.04170081967213115,2538.404738903045
0.04180327868852459,2535.871303081512
0.04190573770491803,2509.247016906738
0.042008196721311473,2459.215199947357
0.042110655737704915,2386.400949954986
0.04221311475409836,2292.3447847366333
0.042315573770491804,2178.1619668006897
0.042418032786885246,2045.771062374115
0.04252049180327869,1897.854208946228
0.04262295081967213,1736.9460225105283
0.04272540983606558,1565.6428813934324
0.04282786885245902,1387.113547325134
0.04293032786885246,1204.176664352417
0.0430327868852459,1020.3361630439758
0.04313524590163934,838.4421586990356
0.043237704918032784,661.9781255722046
0.04334016393442623,494.0577507019043
0.04344262295081967,337.34822273254395
0.043545081967213115,194.62019205093384
0.043647540983606556,72.02471494674683
0.04375,8.056640625
0.043852459016393446,1.026356220245361
0.04395491803278689,0.745868682861328
0.04405737704918033,0.47836303710937494
0.04415983606557377,0.2970099449157715
0.04426229508196721,0.3579854965209961
0.04436475409836065,0.5869388580322265
0.0444672131147541,0.8485436439514159
0.04456967213114754,1.5499591827392578
0.04467213114754098,30.986201763153073
0.044774590163934425,136.6812229156494
0.044877049180327866,272.7275133132934
0.044979508196721314,423.51847887039185
0.045081967213114756,586.8629336357117
0.0451844262295082,759.9320054054259
0.04528688524590164,939.8165702819824
0.04538934426229508,1123.2086062431335
0.04549180327868853,1306.9212555885315
0.04559426229508197,1487.735402584076
0.04569672131147541,1662.4834656715393
0.04579918032786885,1828.2992005348203
0.04590163934426229,1982.1731686592102
0.046004098360655735,2121.762728691101
0.04610655737704918,2244.212257862091
0.046209016393442624,2347.4812388420105
0.046311475409836066,2429.835212230682
0.04641393442622951,2489.9555325508118
0.04651639344262295,2526.8654108047485
0.0466188524590164,2539.9641394615173
0.04672131147540984,2528.6714673042297
0.04682377049180328,2493.483066558838
0.04692622950819672,2435.269510746002
0.04702868852459016,2354.632294178009
0.0471311475409836,2252.9046177864075
0.04723360655737705,2131.7690134048457
0.04733606557377049,1993.3761477470398
0.047438524590163934,1840.58518409729
0.047540983606557376,1675.658905506134
0.04764344262295082,1501.4191031455991
0.047745901639344265,1320.8866238594055
0.04784836065573771,1137.228262424469
0.04795081967213115,953.739845752716
0.04805327868852459,773.4854936599731
0.04815573770491803,599.8286962509155
0.04825819672131147,435.67070960998535
0.04836065573770492,283.7038993835449
0.04846311475409836,146.73943519592282
0.0485655737704918,39.20767307281494
0.048668032786885244,2.6357173919677734
0.048770491803278686,0.916600227355957
0.048872950819672134,0.6593227386474608
0.048975409836065575,0.3996849060058593
0.04907786885245902,0.2950429916381836
0.04918032786885246,0.423288345336914
0.0492827868852459,0.6809592247009276
0.04938524590163934,0.9453177452087402
0.04948770491803279,4.904007911682128
0.04959016393442623,62.1368408203125
0.04969262295081967,184.18943881988525
0.04979508196721311,325.82659721374506
0.049897540983606554,481.7371487617492
0.05,648.9387989044188
0.050102459016393444,824.8292684555053
0.050204918032786885,1006.3585996627806
0.05030737704918033,1190.1259303092957
0.05040983606557377,1373.291766643524
0.050512295081967216,1552.2939562797546
0.05061475409836066,1724.1679072380066
0.0507172131147541,1885.9317183494566
0.05081967213114754,2034.9559664726255
0.05092213114754098,2168.7249183654785
0.05102459016393442,2284.3538403511047
0.05112704918032787,2380.143678188324
0.05122950819672131,2454.5389652252197
0.051331967213114754,2506.311535835266
0.051434426229508196,2534.7643017768855
0.05153688524590164,2539.0207886695857
0.051639344262295085,2518.860697746277
0.051741803278688527,2475.158929824829
0.05184426229508197,2408.6180806159973
0.05194672131147541,2320.178747177124
0.05204918032786885,2211.3299131393433
